14.996740 5974.000000
15.011220 5965.000000
15.025710 5895.000000
15.040190 5920.000000
15.054670 5883.000000
15.069160 5925.000000
15.083640 5900.000000
15.098120 5994.000000
15.112600 6093.000000
15.127090 6052.000000
15.141570 5991.000000
15.156050 5901.000000
15.170540 6030.000000
15.185020 5878.000000
15.199500 6016.000000
15.213990 5866.000000
15.228470 6034.000000
15.242950 5853.000000
15.257440 5944.000000
15.271920 5821.000000
15.286400 5915.000000
15.300890 5966.000000
15.315370 6019.000000
15.329850 5850.000000
15.344340 6006.000000
15.358820 5837.000000
15.373300 5909.000000
15.387790 6007.000000
15.402270 5928.000000
15.416750 5839.000000
15.431240 5832.000000
15.445720 5908.000000
15.460200 5922.000000
15.474690 5888.000000
15.489170 5828.000000
15.503650 5888.000000
15.518140 6050.000000
15.532620 5889.000000
15.547100 5895.000000
15.561590 5968.000000
15.576070 5712.000000
15.590550 5937.000000
15.605040 5900.000000
15.619520 5916.000000
15.634000 5908.000000
15.648490 5891.000000
15.662970 5891.000000
15.677450 5979.000000
15.691940 5989.000000
15.706420 5907.000000
15.720900 5958.000000
15.735390 5702.000000
15.749870 5816.000000
15.764350 5860.000000
15.778840 5840.000000
15.793320 5894.000000
15.807800 5726.000000
15.822290 5839.000000
15.836770 5999.000000
15.851250 6093.000000
15.865740 5759.000000
15.880220 5879.000000
15.894700 5794.000000
15.909190 5850.000000
15.923670 5938.000000
15.938150 5761.000000
15.952640 5911.000000
15.967120 5752.000000
15.981600 5871.000000
15.996090 5901.000000
16.010570 5778.000000
16.025050 5730.000000
16.039540 5836.000000
16.054020 5816.000000
16.068500 5865.000000
16.082990 5702.000000
16.097470 5771.000000
16.111950 5844.000000
16.126440 5830.000000
16.140920 5679.000000
16.155400 5848.000000
16.169890 5769.000000
16.184370 5904.000000
16.198850 5951.000000
16.213340 5875.000000
16.227820 5780.000000
16.242300 5781.000000
16.256790 5806.000000
16.271270 5789.000000
16.285750 5745.000000
16.300240 5830.000000
16.314720 5814.000000
16.329200 5832.000000
16.343690 5846.000000
16.358170 5673.000000
16.372650 5731.000000
16.387140 5739.000000
16.401620 5641.000000
16.416100 5777.000000
16.430590 5750.000000
16.445070 5881.000000
16.459550 5724.000000
16.474040 5664.000000
16.488520 5740.000000
16.503000 5994.000000
16.517490 5905.000000
16.531970 5851.000000
16.546450 5901.000000
16.560930 5719.000000
16.575420 5558.000000
16.589900 5784.000000
16.604380 5829.000000
16.618870 5816.000000
16.633350 5911.000000
16.647830 5904.000000
16.662320 5622.000000
16.676800 5745.000000
16.691280 5745.000000
16.705770 5757.000000
16.720250 5757.000000
16.734730 5853.000000
16.749220 5726.000000
16.763700 5800.000000
16.778180 5696.000000
16.792670 5894.000000
16.807150 5765.000000
16.821630 5985.000000
16.836120 5924.000000
16.850600 5846.000000
16.865080 5838.000000
16.879570 5868.000000
16.894050 5826.000000
16.908530 5791.000000
16.923020 5930.000000
16.937500 5892.000000
16.951980 5816.000000
16.966470 5817.000000
16.980950 5850.000000
16.995430 5852.000000
17.009920 5803.000000
17.024400 5829.000000
17.038880 5775.000000
17.053370 5701.000000
17.067850 5859.000000
17.082330 5995.000000
17.096820 5745.000000
17.111300 5734.000000
17.125780 5829.000000
17.140270 5850.000000
17.154750 5779.000000
17.169230 5818.000000
17.183720 5739.000000
17.198200 5784.000000
17.212680 5683.000000
17.227170 5770.000000
17.241650 5748.000000
17.256130 5846.000000
17.270620 5824.000000
17.285100 5794.000000
17.299580 5773.000000
17.314070 5701.000000
17.328550 5768.000000
17.343030 5727.000000
17.357520 5741.000000
17.372000 5696.000000
17.386480 5674.000000
17.400970 5598.000000
17.415450 5702.000000
17.429930 5658.000000
17.444420 5663.000000
17.458900 5620.000000
17.473380 5855.000000
17.487870 5768.000000
17.502350 5681.000000
17.516830 5666.000000
17.531320 5742.000000
17.545800 5525.000000
17.560280 5808.000000
17.574770 5755.000000
17.589250 5828.000000
17.603730 5602.000000
17.618220 5683.000000
17.632700 5705.000000
17.647180 5612.000000
17.661670 5703.000000
17.676150 5700.000000
17.690630 5749.000000
17.705120 5696.000000
17.719600 5690.000000
17.734080 5788.000000
17.748570 5706.000000
17.763050 5687.000000
17.777530 5661.000000
17.792020 5711.000000
17.806500 5730.000000
17.820980 5676.000000
17.835470 5764.000000
17.849950 5712.000000
17.864430 5613.000000
17.878920 5810.000000
17.893400 5770.000000
17.907880 5652.000000
17.922370 5750.000000
17.936850 5785.000000
17.951330 5744.000000
17.965820 5680.000000
17.980300 5678.000000
17.994780 5645.000000
18.009260 5683.000000
18.023750 5745.000000
18.038230 5731.000000
18.052710 5725.000000
18.067200 5665.000000
18.081680 5751.000000
18.096160 5683.000000
18.110650 5949.000000
18.125130 5734.000000
18.139610 5755.000000
18.154100 5926.000000
18.168580 5942.000000
18.183060 6008.000000
18.197550 5965.000000
18.212030 5943.000000
18.226510 6062.000000
18.241000 6100.000000
18.255480 6219.000000
18.269960 6332.000000
18.284450 6604.000000
18.298930 6488.000000
18.313410 6836.000000
18.327900 6954.000000
18.342380 7371.000000
18.356860 7567.000000
18.371350 7999.000000
18.385830 8022.000000
18.400310 8271.000000
18.414800 8573.000000
18.429280 8944.000000
18.443760 9095.000000
18.458250 9453.000000
18.472730 9628.000000
18.487210 9320.000000
18.501700 9137.000000
18.516180 8743.000000
18.530660 8489.000000
18.545150 7923.000000
18.559630 7586.000000
18.574110 7296.000000
18.588600 6799.000000
18.603080 6554.000000
18.617560 6572.000000
18.632050 6239.000000
18.646530 6167.000000
18.661010 6112.000000
18.675500 5806.000000
18.689980 5955.000000
18.704460 5797.000000
18.718950 5861.000000
18.733430 5873.000000
18.747910 5691.000000
18.762400 5736.000000
18.776880 5696.000000
18.791360 5896.000000
18.805850 5769.000000
18.820330 5590.000000
18.834810 5682.000000
18.849300 5584.000000
18.863780 5722.000000
18.878260 5583.000000
18.892750 5624.000000
18.907230 5691.000000
18.921710 5499.000000
18.936200 5569.000000
18.950680 5696.000000
18.965160 5557.000000
18.979650 5673.000000
18.994130 5570.000000
19.008610 5521.000000
19.023100 5622.000000
19.037580 5676.000000
19.052060 5517.000000
19.066550 5646.000000
19.081030 5548.000000
19.095510 5491.000000
19.110000 5433.000000
19.124480 5539.000000
19.138960 5617.000000
19.153450 5581.000000
19.167930 5499.000000
19.182410 5607.000000
19.196900 5557.000000
19.211380 5401.000000
19.225860 5475.000000
19.240350 5540.000000
19.254830 5520.000000
19.269310 5509.000000
19.283800 5575.000000
19.298280 5508.000000
19.312760 5481.000000
19.327250 5505.000000
19.341730 5665.000000
19.356210 5460.000000
19.370700 5401.000000
19.385180 5518.000000
19.399660 5575.000000
19.414150 5492.000000
19.428630 5506.000000
19.443110 5416.000000
19.457590 5440.000000
19.472080 5476.000000
19.486560 5398.000000
19.501040 5441.000000
19.515530 5474.000000
19.530010 5469.000000
19.544490 5443.000000
19.558980 5494.000000
19.573460 5508.000000
19.587940 5600.000000
19.602430 5503.000000
19.616910 5508.000000
19.631390 5486.000000
19.645880 5462.000000
19.660360 5476.000000
19.674840 5523.000000
19.689330 5398.000000
19.703810 5443.000000
19.718290 5541.000000
19.732780 5516.000000
19.747260 5483.000000
19.761740 5542.000000
19.776230 5595.000000
19.790710 5392.000000
19.805190 5538.000000
19.819680 5557.000000
19.834160 5493.000000
19.848640 5510.000000
19.863130 5375.000000
19.877610 5516.000000
19.892090 5441.000000
19.906580 5485.000000
19.921060 5607.000000
19.935540 5468.000000
19.950030 5458.000000
19.964510 5519.000000
19.978990 5402.000000
19.993480 5445.000000
20.007960 5385.000000
20.022440 5477.000000
20.036930 5414.000000
20.051410 5562.000000
20.065890 5489.000000
20.080380 5564.000000
20.094860 5391.000000
20.109340 5522.000000
20.123830 5384.000000
20.138310 5494.000000
20.152790 5481.000000
20.167280 5469.000000
20.181760 5440.000000
20.196240 5323.000000
20.210730 5427.000000
20.225210 5418.000000
20.239690 5396.000000
20.254180 5355.000000
20.268660 5314.000000
20.283140 5388.000000
20.297630 5413.000000
20.312110 5499.000000
20.326590 5284.000000
20.341080 5479.000000
20.355560 5343.000000
20.370040 5354.000000
20.384530 5385.000000
20.399010 5441.000000
20.413490 5440.000000
20.427980 5332.000000
20.442460 5453.000000
20.456940 5458.000000
20.471430 5299.000000
20.485910 5398.000000
20.500390 5263.000000
20.514880 5521.000000
20.529360 5456.000000
20.543840 5360.000000
20.558330 5294.000000
20.572810 5356.000000
20.587290 5430.000000
20.601780 5331.000000
20.616260 5505.000000
20.630740 5412.000000
20.645230 5261.000000
20.659710 5417.000000
20.674190 5316.000000
20.688680 5353.000000
20.703160 5454.000000
20.717640 5177.000000
20.732130 5323.000000
20.746610 5483.000000
20.761090 5365.000000
20.775580 5457.000000
20.790060 5340.000000
20.804540 5307.000000
20.819030 5216.000000
20.833510 5430.000000
20.847990 5560.000000
20.862480 5487.000000
20.876960 5398.000000
20.891440 5360.000000
20.905920 5332.000000
20.920410 5372.000000
20.934890 5383.000000
20.949370 5586.000000
20.963860 5502.000000
20.978340 5385.000000
20.992820 5428.000000
21.007310 5597.000000
21.021790 5534.000000
21.036270 5544.000000
21.050760 5622.000000
21.065240 5685.000000
21.079720 5555.000000
21.094210 5619.000000
21.108690 5462.000000
21.123170 5531.000000
21.137660 5550.000000
21.152140 5545.000000
21.166620 5380.000000
21.181110 5458.000000
21.195590 5472.000000
21.210070 5367.000000
21.224560 5452.000000
21.239040 5298.000000
21.253520 5409.000000
21.268010 5293.000000
21.282490 5234.000000
21.296970 5283.000000
21.311460 5214.000000
21.325940 5150.000000
21.340420 5348.000000
21.354910 5293.000000
21.369390 5388.000000
21.383870 5432.000000
21.398360 5397.000000
21.412840 5223.000000
21.427320 5299.000000
21.441810 5249.000000
21.456290 5327.000000
21.470770 5279.000000
21.485260 5230.000000
21.499740 5363.000000
21.514220 5297.000000
21.528710 5420.000000
21.543190 5379.000000
21.557670 5276.000000
21.572160 5257.000000
21.586640 5186.000000
21.601120 5282.000000
21.615610 5244.000000
21.630090 5130.000000
21.644570 5191.000000
21.659060 5326.000000
21.673540 5263.000000
21.688020 5310.000000
21.702510 5373.000000
21.716990 5262.000000
21.731470 5205.000000
21.745960 5131.000000
21.760440 5178.000000
21.774920 5321.000000
21.789410 5167.000000
21.803890 5354.000000
21.818370 5260.000000
21.832860 5260.000000
21.847340 5221.000000
21.861820 5243.000000
21.876310 5130.000000
21.890790 5202.000000
21.905270 5184.000000
21.919760 5271.000000
21.934240 5176.000000
21.948720 5105.000000
21.963210 5139.000000
21.977690 5205.000000
21.992170 5179.000000
22.006660 5184.000000
22.021140 5262.000000
22.035620 5253.000000
22.050110 5115.000000
22.064590 5073.000000
22.079070 5118.000000
22.093560 5204.000000
22.108040 5130.000000
22.122520 5195.000000
22.137010 5189.000000
22.151490 5205.000000
22.165970 5130.000000
22.180460 5136.000000
22.194940 5171.000000
22.209420 5166.000000
22.223910 5093.000000
22.238390 5187.000000
22.252870 5064.000000
22.267360 5136.000000
22.281840 5226.000000
22.296320 5181.000000
22.310810 5110.000000
22.325290 5140.000000
22.339770 5177.000000
22.354250 5259.000000
22.368740 5130.000000
22.383220 5250.000000
22.397700 5183.000000
22.412190 5139.000000
22.426670 5151.000000
22.441150 5286.000000
22.455640 5321.000000
22.470120 5226.000000
22.484600 5143.000000
22.499090 5177.000000
22.513570 5093.000000
22.528050 5286.000000
22.542540 5290.000000
22.557020 5242.000000
22.571500 5135.000000
22.585990 5177.000000
22.600470 5134.000000
22.614950 5046.000000
22.629440 5117.000000
22.643920 5136.000000
22.658400 5216.000000
22.672890 5247.000000
22.687370 5190.000000
22.701850 5172.000000
22.716340 5103.000000
22.730820 5145.000000
22.745300 5243.000000
22.759790 5140.000000
22.774270 5000.000000
22.788750 5112.000000
22.803240 5109.000000
22.817720 4977.000000
22.832200 5128.000000
22.846690 5079.000000
22.861170 5150.000000
22.875650 4973.000000
22.890140 5222.000000
22.904620 5052.000000
22.919100 5154.000000
22.933590 5154.000000
22.948070 5039.000000
22.962550 5113.000000
22.977040 5139.000000
22.991520 5111.000000
23.006000 5113.000000
23.020490 5217.000000
23.034970 4962.000000
23.049450 5073.000000
23.063940 5105.000000
23.078420 5186.000000
23.092900 5095.000000
23.107390 5088.000000
23.121870 5147.000000
23.136350 5046.000000
23.150840 4967.000000
23.165320 5094.000000
23.179800 5108.000000
23.194290 5180.000000
23.208770 5198.000000
23.223250 5134.000000
23.237740 5195.000000
23.252220 5071.000000
23.266700 5066.000000
23.281190 5181.000000
23.295670 5078.000000
23.310150 5123.000000
23.324640 5143.000000
23.339120 5051.000000
23.353600 5182.000000
23.368090 5134.000000
23.382570 5045.000000
23.397050 5099.000000
23.411540 5021.000000
23.426020 5107.000000
23.440500 5159.000000
23.454990 5107.000000
23.469470 5006.000000
23.483950 5169.000000
23.498440 5029.000000
23.512920 5183.000000
23.527400 5148.000000
23.541890 5072.000000
23.556370 5028.000000
23.570850 5164.000000
23.585340 5175.000000
23.599820 4946.000000
23.614300 5123.000000
23.628790 5042.000000
23.643270 5045.000000
23.657750 5158.000000
23.672240 5146.000000
23.686720 5245.000000
23.701200 5126.000000
23.715690 5073.000000
23.730170 4896.000000
23.744650 5083.000000
23.759140 5081.000000
23.773620 5126.000000
23.788100 5077.000000
23.802580 5100.000000
23.817070 5168.000000
23.831550 5019.000000
23.846030 4940.000000
23.860520 5133.000000
23.875000 5114.000000
23.889480 5068.000000
23.903970 5165.000000
23.918450 5026.000000
23.932930 5159.000000
23.947420 5200.000000
23.961900 5072.000000
23.976380 4933.000000
23.990870 5136.000000
24.005350 4965.000000
24.019830 4926.000000
24.034320 5027.000000
24.048800 5030.000000
24.063280 5100.000000
24.077770 5100.000000
24.092250 5056.000000
24.106730 5022.000000
24.121220 4962.000000
24.135700 5018.000000
24.150180 5047.000000
24.164670 5072.000000
24.179150 5090.000000
24.193630 5095.000000
24.208120 5036.000000
24.222600 5119.000000
24.237080 5080.000000
24.251570 4959.000000
24.266050 4925.000000
24.280530 5118.000000
24.295020 5040.000000
24.309500 5120.000000
24.323980 5160.000000
24.338470 4921.000000
24.352950 5040.000000
24.367430 5022.000000
24.381920 5023.000000
24.396400 5005.000000
24.410880 5104.000000
24.425370 4910.000000
24.439850 4995.000000
24.454330 5127.000000
24.468820 5116.000000
24.483300 5097.000000
24.497780 5022.000000
24.512270 4989.000000
24.526750 5168.000000
24.541230 5020.000000
24.555720 4962.000000
24.570200 5118.000000
24.584680 5005.000000
24.599170 5008.000000
24.613650 5094.000000
24.628130 5039.000000
24.642620 5042.000000
24.657100 5007.000000
24.671580 5050.000000
24.686070 5155.000000
24.700550 5106.000000
24.715030 5092.000000
24.729520 5090.000000
24.744000 5131.000000
24.758480 5081.000000
24.772970 5122.000000
24.787450 5165.000000
24.801930 5037.000000
24.816420 5043.000000
24.830900 5079.000000
24.845380 5036.000000
24.859870 5084.000000
24.874350 4988.000000
24.888830 4944.000000
24.903320 5111.000000
24.917800 4962.000000
24.932280 5123.000000
24.946770 5166.000000
24.961250 5109.000000
24.975730 5101.000000
24.990220 5081.000000
25.004700 4980.000000
25.019180 5044.000000
25.033670 4925.000000
25.048150 5051.000000
25.062630 5053.000000
25.077120 5076.000000
25.091600 4971.000000
25.106080 5089.000000
25.120570 5054.000000
25.135050 4986.000000
25.149530 5062.000000
25.164020 4977.000000
25.178500 5070.000000
25.192980 5152.000000
25.207470 5039.000000
25.221950 5037.000000
25.236430 5046.000000
25.250910 4996.000000
25.265400 5091.000000
25.279880 5042.000000
25.294360 5029.000000
25.308850 5050.000000
25.323330 5136.000000
25.337810 5099.000000
25.352300 5018.000000
25.366780 5034.000000
25.381260 5037.000000
25.395750 5050.000000
25.410230 5027.000000
25.424710 5000.000000
25.439200 5048.000000
25.453680 4952.000000
25.468160 5029.000000
25.482650 5012.000000
25.497130 5076.000000
25.511610 5055.000000
25.526100 5011.000000
25.540580 5040.000000
25.555060 5090.000000
25.569550 5045.000000
25.584030 4949.000000
25.598510 5109.000000
25.613000 5070.000000
25.627480 5107.000000
25.641960 5070.000000
25.656450 4991.000000
25.670930 4996.000000
25.685410 4929.000000
25.699900 4970.000000
25.714380 5094.000000
25.728860 5047.000000
25.743350 5034.000000
25.757830 5043.000000
25.772310 4996.000000
25.786800 4925.000000
25.801280 4995.000000
25.815760 5058.000000
25.830250 4999.000000
25.844730 4915.000000
25.859210 5052.000000
25.873700 5044.000000
25.888180 5018.000000
25.902660 5046.000000
25.917150 5008.000000
25.931630 4965.000000
25.946110 5068.000000
25.960600 4945.000000
25.975080 5116.000000
25.989560 5066.000000
26.004050 5061.000000
26.018530 4967.000000
26.033010 5012.000000
26.047500 5131.000000
26.061980 5109.000000
26.076460 5004.000000
26.090950 5063.000000
26.105430 4984.000000
26.119910 4967.000000
26.134400 4873.000000
26.148880 5097.000000
26.163360 5051.000000
26.177850 4925.000000
26.192330 5007.000000
26.206810 5016.000000
26.221300 5187.000000
26.235780 4991.000000
26.250260 4994.000000
26.264750 4984.000000
26.279230 5102.000000
26.293710 5002.000000
26.308200 4953.000000
26.322680 5064.000000
26.337160 5122.000000
26.351650 4848.000000
26.366130 5050.000000
26.380610 5070.000000
26.395100 5074.000000
26.409580 5011.000000
26.424060 5069.000000
26.438550 4963.000000
26.453030 5022.000000
26.467510 5097.000000
26.482000 4965.000000
26.496480 5209.000000
26.510960 5034.000000
26.525450 5048.000000
26.539930 4979.000000
26.554410 4972.000000
26.568900 4959.000000
26.583380 4977.000000
26.597860 4979.000000
26.612350 5112.000000
26.626830 5065.000000
26.641310 5096.000000
26.655800 4946.000000
26.670280 5117.000000
26.684760 4791.000000
26.699240 5079.000000
26.713730 5181.000000
26.728210 5048.000000
26.742690 5059.000000
26.757180 5075.000000
26.771660 5108.000000
26.786140 4981.000000
26.800630 5136.000000
26.815110 4973.000000
26.829590 5056.000000
26.844080 5066.000000
26.858560 5088.000000
26.873040 5164.000000
26.887530 4992.000000
26.902010 4980.000000
26.916490 5044.000000
26.930980 4905.000000
26.945460 4991.000000
26.959940 5054.000000
26.974430 5039.000000
26.988910 5080.000000
27.003390 5070.000000
27.017880 5133.000000
27.032360 5198.000000
27.046840 5131.000000
27.061330 5072.000000
27.075810 5125.000000
27.090290 5029.000000
27.104780 4964.000000
27.119260 5035.000000
27.133740 5087.000000
27.148230 5092.000000
27.162710 5223.000000
27.177190 5079.000000
27.191680 5040.000000
27.206160 4957.000000
27.220640 5069.000000
27.235130 4941.000000
27.249610 5113.000000
27.264090 5134.000000
27.278580 5140.000000
27.293060 5127.000000
27.307540 5142.000000
27.322030 5040.000000
27.336510 5064.000000
27.350990 5103.000000
27.365480 5091.000000
27.379960 5012.000000
27.394440 5096.000000
27.408930 5028.000000
27.423410 5129.000000
27.437890 4978.000000
27.452380 5106.000000
27.466860 4959.000000
27.481340 5178.000000
27.495830 5070.000000
27.510310 5106.000000
27.524790 5121.000000
27.539280 5025.000000
27.553760 5099.000000
27.568240 5049.000000
27.582730 4980.000000
27.597210 5054.000000
27.611690 5175.000000
27.626180 5033.000000
27.640660 5023.000000
27.655140 5117.000000
27.669630 5062.000000
27.684110 5092.000000
27.698590 5063.000000
27.713080 5234.000000
27.727560 5158.000000
27.742040 5061.000000
27.756530 5105.000000
27.771010 5185.000000
27.785490 5093.000000
27.799980 5253.000000
27.814460 5169.000000
27.828940 5257.000000
27.843430 5260.000000
27.857910 5359.000000
27.872390 5516.000000
27.886880 5500.000000
27.901360 5376.000000
27.915840 5567.000000
27.930330 5818.000000
27.944810 5636.000000
27.959290 5756.000000
27.973780 5622.000000
27.988260 5778.000000
28.002740 5831.000000
28.017230 5713.000000
28.031710 5658.000000
28.046190 5619.000000
28.060680 5676.000000
28.075160 5608.000000
28.089640 5513.000000
28.104130 5417.000000
28.118610 5240.000000
28.133090 5392.000000
28.147570 5275.000000
28.162060 5168.000000
28.176540 5072.000000
28.191020 5233.000000
28.205510 5212.000000
28.219990 5060.000000
28.234470 5185.000000
28.248960 5154.000000
28.263440 5037.000000
28.277920 5152.000000
28.292410 5119.000000
28.306890 5184.000000
28.321370 5119.000000
28.335860 5169.000000
28.350340 5142.000000
28.364820 5115.000000
28.379310 5004.000000
28.393790 5090.000000
28.408270 4898.000000
28.422760 5127.000000
28.437240 4989.000000
28.451720 5101.000000
28.466210 5074.000000
28.480690 5134.000000
28.495170 5147.000000
28.509660 5051.000000
28.524140 5147.000000
28.538620 5217.000000
28.553110 5016.000000
28.567590 5055.000000
28.582070 5081.000000
28.596560 5065.000000
28.611040 5070.000000
28.625520 4966.000000
28.640010 4947.000000
28.654490 5062.000000
28.668970 5080.000000
28.683460 5070.000000
28.697940 4965.000000
28.712420 5112.000000
28.726910 5059.000000
28.741390 5138.000000
28.755870 5034.000000
28.770360 5188.000000
28.784840 5070.000000
28.799320 5120.000000
28.813810 5073.000000
28.828290 5065.000000
28.842770 5069.000000
28.857260 4978.000000
28.871740 5030.000000
28.886220 5166.000000
28.900710 5153.000000
28.915190 5267.000000
28.929670 5137.000000
28.944160 5091.000000
28.958640 5305.000000
28.973120 5085.000000
28.987610 5213.000000
29.002090 5069.000000
29.016570 5258.000000
29.031060 5133.000000
29.045540 5169.000000
29.060020 5258.000000
29.074510 5204.000000
29.088990 5124.000000
29.103470 5215.000000
29.117960 5214.000000
29.132440 5219.000000
29.146920 5148.000000
29.161410 5335.000000
29.175890 5265.000000
29.190370 5167.000000
29.204860 5485.000000
29.219340 5267.000000
29.233820 5329.000000
29.248310 5281.000000
29.262790 5323.000000
29.277270 5395.000000
29.291760 5418.000000
29.306240 5534.000000
29.320720 5353.000000
29.335210 5437.000000
29.349690 5482.000000
29.364170 5537.000000
29.378660 5526.000000
29.393140 5595.000000
29.407620 5521.000000
29.422110 5524.000000
29.436590 5710.000000
29.451070 5462.000000
29.465560 5687.000000
29.480040 5537.000000
29.494520 5573.000000
29.509010 5628.000000
29.523490 5533.000000
29.537970 5654.000000
29.552460 5644.000000
29.566940 5644.000000
29.581420 5816.000000
29.595900 5659.000000
29.610390 5854.000000
29.624870 5892.000000
29.639350 5822.000000
29.653840 5859.000000
29.668320 5910.000000
29.682800 5819.000000
29.697290 5872.000000
29.711770 5831.000000
29.726250 5911.000000
29.740740 5951.000000
29.755220 5986.000000
29.769700 6173.000000
29.784190 6239.000000
29.798670 6258.000000
29.813150 6251.000000
29.827640 6384.000000
29.842120 6582.000000
29.856600 6567.000000
29.871090 6813.000000
29.885570 6988.000000
29.900050 7124.000000
29.914540 7338.000000
29.929020 7735.000000
29.943500 8002.000000
29.957990 8279.000000
29.972470 9098.000000
29.986950 9535.000000
30.001440 10138.000000
30.015920 11030.000000
30.030400 11872.000000
30.044890 13234.000000
30.059370 14621.000000
30.073850 16283.000000
30.088340 18187.000000
30.102820 21162.000000
30.117300 23802.000000
30.131790 26560.000000
30.146270 30521.000000
30.160750 33961.000000
30.175240 38144.000000
30.189720 42330.000000
30.204200 47440.000000
30.218690 52188.000000
30.233170 56681.000000
30.247650 60205.000000
30.262140 62496.000000
30.276620 61984.000000
30.291100 60012.000000
30.305590 56297.000000
30.320070 51414.000000
30.334550 47144.000000
30.349040 42068.000000
30.363520 37152.000000
30.378000 31972.000000
30.392490 27237.000000
30.406970 23350.000000
30.421450 19791.000000
30.435940 17151.000000
30.450420 15071.000000
30.464900 13579.000000
30.479390 11916.000000
30.493870 10912.000000
30.508350 10209.000000
30.522840 9571.000000
30.537320 9025.000000
30.551800 8388.000000
30.566290 8277.000000
30.580770 7754.000000
30.595250 7390.000000
30.609740 7348.000000
30.624220 7105.000000
30.638700 6851.000000
30.653190 6690.000000
30.667670 6734.000000
30.682150 6435.000000
30.696640 6500.000000
30.711120 6512.000000
30.725600 6245.000000
30.740090 6128.000000
30.754570 6221.000000
30.769050 6064.000000
30.783540 6004.000000
30.798020 5804.000000
30.812500 5788.000000
30.826990 5825.000000
30.841470 5830.000000
30.855950 5797.000000
30.870440 5687.000000
30.884920 5768.000000
30.899400 5752.000000
30.913890 5760.000000
30.928370 5667.000000
30.942850 5720.000000
30.957340 5621.000000
30.971820 5614.000000
30.986300 5495.000000
31.000790 5651.000000
31.015270 5663.000000
31.029750 5546.000000
31.044230 5598.000000
31.058720 5559.000000
31.073200 5455.000000
31.087680 5696.000000
31.102170 5575.000000
31.116650 5465.000000
31.131130 5510.000000
31.145620 5530.000000
31.160100 5478.000000
31.174580 5423.000000
31.189070 5371.000000
31.203550 5400.000000
31.218030 5455.000000
31.232520 5431.000000
31.247000 5390.000000
31.261480 5233.000000
31.275970 5410.000000
31.290450 5485.000000
31.304930 5539.000000
31.319420 5287.000000
31.333900 5322.000000
31.348380 5367.000000
31.362870 5251.000000
31.377350 5212.000000
31.391830 5292.000000
31.406320 5334.000000
31.420800 5311.000000
31.435280 5365.000000
31.449770 5164.000000
31.464250 5283.000000
31.478730 5246.000000
31.493220 5362.000000
31.507700 5310.000000
31.522180 5385.000000
31.536670 5512.000000
31.551150 5417.000000
31.565630 5226.000000
31.580120 5213.000000
31.594600 5250.000000
31.609080 5363.000000
31.623570 5126.000000
31.638050 5360.000000
31.652530 5404.000000
31.667020 5359.000000
31.681500 5243.000000
31.695980 5408.000000
31.710470 5332.000000
31.724950 5324.000000
31.739430 5332.000000
31.753920 5258.000000
31.768400 5247.000000
31.782880 5404.000000
31.797370 5360.000000
31.811850 5286.000000
31.826330 5328.000000
31.840820 5340.000000
31.855300 5289.000000
31.869780 5582.000000
31.884270 5514.000000
31.898750 5498.000000
31.913230 5685.000000
31.927720 5537.000000
31.942200 5631.000000
31.956680 5548.000000
31.971170 5503.000000
31.985650 5664.000000
32.000130 5727.000000
32.014620 5761.000000
32.029100 5612.000000
32.043580 5824.000000
32.058070 5659.000000
32.072550 5828.000000
32.087030 5626.000000
32.101520 5577.000000
32.116000 5737.000000
32.130480 5723.000000
32.144970 5578.000000
32.159450 5601.000000
32.173930 5359.000000
32.188420 5463.000000
32.202900 5517.000000
32.217380 5345.000000
32.231870 5437.000000
32.246350 5377.000000
32.260830 5392.000000
32.275320 5372.000000
32.289800 5355.000000
32.304280 5415.000000
32.318770 5221.000000
32.333250 5285.000000
32.347730 5279.000000
32.362220 5277.000000
32.376700 5373.000000
32.391180 5227.000000
32.405670 5097.000000
32.420150 5128.000000
32.434630 5165.000000
32.449120 5131.000000
32.463600 5175.000000
32.478080 5145.000000
32.492560 5228.000000
32.507050 5321.000000
32.521530 5132.000000
32.536010 5200.000000
32.550500 5033.000000
32.564980 5251.000000
32.579460 5193.000000
32.593950 5053.000000
32.608430 5245.000000
32.622910 5064.000000
32.637400 5075.000000
32.651880 5081.000000
32.666360 5185.000000
32.680850 5215.000000
32.695330 5178.000000
32.709810 5165.000000
32.724300 5242.000000
32.738780 5034.000000
32.753260 5089.000000
32.767750 5008.000000
32.782230 5114.000000
32.796710 5152.000000
32.811200 5194.000000
32.825680 5049.000000
32.840160 5034.000000
32.854650 5179.000000
32.869130 5035.000000
32.883610 4981.000000
32.898100 4963.000000
32.912580 5162.000000
32.927060 5252.000000
32.941550 5265.000000
32.956030 5179.000000
32.970510 5054.000000
32.985000 5083.000000
32.999480 5252.000000
33.013960 5184.000000
33.028450 5110.000000
33.042930 5113.000000
33.057410 5139.000000
33.071900 5181.000000
33.086380 5083.000000
33.100860 5286.000000
33.115350 5085.000000
33.129830 5186.000000
33.144310 5084.000000
33.158800 5134.000000
33.173280 4942.000000
33.187760 5074.000000
33.202250 5159.000000
33.216730 5173.000000
33.231210 5148.000000
33.245700 5086.000000
33.260180 5193.000000
33.274660 5084.000000
33.289150 5168.000000
33.303630 5153.000000
33.318110 5006.000000
33.332600 5078.000000
33.347080 5102.000000
33.361560 5137.000000
33.376050 5047.000000
33.390530 5051.000000
33.405010 4945.000000
33.419500 5114.000000
33.433980 5123.000000
33.448460 5097.000000
33.462950 5206.000000
33.477430 5036.000000
33.491910 5182.000000
33.506400 5100.000000
33.520880 5179.000000
33.535360 5207.000000
33.549850 5209.000000
33.564330 5219.000000
33.578810 5206.000000
33.593300 5007.000000
33.607780 5113.000000
33.622260 5156.000000
33.636750 5106.000000
33.651230 5389.000000
33.665710 5178.000000
33.680200 5156.000000
33.694680 5195.000000
33.709160 5001.000000
33.723650 5150.000000
33.738130 5045.000000
33.752610 5021.000000
33.767100 5202.000000
33.781580 5018.000000
33.796060 5086.000000
33.810550 5116.000000
33.825030 5261.000000
33.839510 5242.000000
33.854000 5301.000000
33.868480 5206.000000
33.882960 5076.000000
33.897450 5098.000000
33.911930 5279.000000
33.926410 5124.000000
33.940890 5306.000000
33.955380 5297.000000
33.969860 5238.000000
33.984340 5352.000000
33.998830 5245.000000
34.013310 5388.000000
34.027790 5318.000000
34.042280 5451.000000
34.056760 5364.000000
34.071240 5530.000000
34.085730 5466.000000
34.100210 5422.000000
34.114690 5645.000000
34.129180 5477.000000
34.143660 5527.000000
34.158140 5727.000000
34.172630 5498.000000
34.187110 5517.000000
34.201590 5585.000000
34.216080 5595.000000
34.230560 5686.000000
34.245040 5663.000000
34.259530 5583.000000
34.274010 5616.000000
34.288490 5596.000000
34.302980 5616.000000
34.317460 5772.000000
34.331940 5791.000000
34.346430 5797.000000
34.360910 5661.000000
34.375390 5768.000000
34.389880 5948.000000
34.404360 5827.000000
34.418840 5951.000000
34.433330 6023.000000
34.447810 5971.000000
34.462290 5968.000000
34.476780 5868.000000
34.491260 6013.000000
34.505740 5944.000000
34.520230 6016.000000
34.534710 5939.000000
34.549190 6040.000000
34.563680 5940.000000
34.578160 6027.000000
34.592640 6025.000000
34.607130 6115.000000
34.621610 6139.000000
34.636090 6133.000000
34.650580 6093.000000
34.665060 6189.000000
34.679540 6173.000000
34.694030 5951.000000
34.708510 6004.000000
34.722990 5984.000000
34.737480 5996.000000
34.751960 6082.000000
34.766440 6176.000000
34.780930 6188.000000
34.795410 6121.000000
34.809890 6229.000000
34.824380 6270.000000
34.838860 6173.000000
34.853340 6302.000000
34.867830 6194.000000
34.882310 6242.000000
34.896790 6358.000000
34.911280 6443.000000
34.925760 6557.000000
34.940240 6521.000000
34.954730 6575.000000
34.969210 6640.000000
34.983690 6725.000000
34.998180 6795.000000
35.012660 6784.000000
35.027140 6907.000000
35.041630 7185.000000
35.056110 7096.000000
35.070590 7329.000000
35.085080 7347.000000
35.099560 7519.000000
35.114040 7643.000000
35.128530 7888.000000
35.143010 7880.000000
35.157490 8392.000000
35.171980 8547.000000
35.186460 8912.000000
35.200940 9243.000000
35.215430 9659.000000
35.229910 10082.000000
35.244390 10434.000000
35.258880 11148.000000
35.273360 11903.000000
35.287840 12703.000000
35.302330 13892.000000
35.316810 15146.000000
35.331290 16425.000000
35.345780 17988.000000
35.360260 20414.000000
35.374740 22893.000000
35.389220 25976.000000
35.403710 29959.000000
35.418190 34818.000000
35.432670 40633.000000
35.447160 46962.000000
35.461640 54124.000000
35.476120 62504.000000
35.490610 70400.000000
35.505090 79173.000000
35.519570 87945.000000
35.534060 97774.000000
35.548540 107133.000000
35.563020 117369.000000
35.577510 128240.000000
35.591990 138276.000000
35.606470 144450.000000
35.620960 147628.000000
35.635440 145237.000000
35.649920 138893.000000
35.664410 128704.000000
35.678890 117249.000000
35.693370 108312.000000
35.707860 98119.000000
35.722340 88120.000000
35.736820 77732.000000
35.751310 66897.000000
35.765790 55955.000000
35.780270 46481.000000
35.794760 39157.000000
35.809240 33168.000000
35.823720 28370.000000
35.838210 24658.000000
35.852690 21864.000000
35.867170 19420.000000
35.881660 17155.000000
35.896140 15683.000000
35.910620 14174.000000
35.925110 13159.000000
35.939590 12182.000000
35.954070 11322.000000
35.968560 10817.000000
35.983040 10297.000000
35.997520 9687.000000
36.012010 9302.000000
36.026490 9068.000000
36.040970 8744.000000
36.055460 8399.000000
36.069940 8266.000000
36.084420 7963.000000
36.098910 7934.000000
36.113390 7647.000000
36.127870 7777.000000
36.142360 7483.000000
36.156840 7354.000000
36.171320 7247.000000
36.185810 7053.000000
36.200290 6994.000000
36.214770 6801.000000
36.229260 6843.000000
36.243740 6931.000000
36.258220 7037.000000
36.272710 6894.000000
36.287190 6788.000000
36.301670 6718.000000
36.316160 6674.000000
36.330640 6848.000000
36.345120 6544.000000
36.359610 6804.000000
36.374090 6751.000000
36.388570 6804.000000
36.403060 6994.000000
36.417540 6744.000000
36.432020 6690.000000
36.446510 6718.000000
36.460990 6634.000000
36.475470 6620.000000
36.489960 6506.000000
36.504440 6632.000000
36.518920 6433.000000
36.533410 6316.000000
36.547890 6232.000000
36.562370 6140.000000
36.576860 6234.000000
36.591340 6070.000000
36.605820 6066.000000
36.620310 6055.000000
36.634790 5943.000000
36.649270 5964.000000
36.663760 5989.000000
36.678240 5893.000000
36.692720 5821.000000
36.707210 5860.000000
36.721690 5838.000000
36.736170 5788.000000
36.750660 5743.000000
36.765140 5599.000000
36.779620 5650.000000
36.794110 5560.000000
36.808590 5609.000000
36.823070 5638.000000
36.837550 5626.000000
36.852040 5543.000000
36.866520 5550.000000
36.881000 5638.000000
36.895490 5640.000000
36.909970 5738.000000
36.924450 5804.000000
36.938940 5895.000000
36.953420 5824.000000
36.967900 5792.000000
36.982390 6109.000000
36.996870 6128.000000
37.011350 6160.000000
37.025840 6381.000000
37.040320 6507.000000
37.054800 6630.000000
37.069290 7006.000000
37.083770 7313.000000
37.098250 7656.000000
37.112740 7933.000000
37.127220 8398.000000
37.141700 8713.000000
37.156190 9054.000000
37.170670 9544.000000
37.185150 9918.000000
37.199640 10350.000000
37.214120 10605.000000
37.228600 11147.000000
37.243090 11239.000000
37.257570 11135.000000
37.272050 10776.000000
37.286540 10382.000000
37.301020 9822.000000
37.315500 9589.000000
37.329990 9100.000000
37.344470 8735.000000
37.358950 8183.000000
37.373440 7785.000000
37.387920 7305.000000
37.402400 6894.000000
37.416890 6533.000000
37.431370 6208.000000
37.445850 6058.000000
37.460340 5806.000000
37.474820 5657.000000
37.489300 5435.000000
37.503790 5384.000000
37.518270 5407.000000
37.532750 5326.000000
37.547240 5327.000000
37.561720 5235.000000
37.576200 5243.000000
37.590690 5193.000000
37.605170 5121.000000
37.619650 4951.000000
37.634140 5189.000000
37.648620 5096.000000
37.663100 5059.000000
37.677590 5175.000000
37.692070 4969.000000
37.706550 5043.000000
37.721040 4987.000000
37.735520 5106.000000
37.750000 4925.000000
37.764490 4945.000000
37.778970 4996.000000
37.793450 5034.000000
37.807940 5070.000000
37.822420 4879.000000
37.836900 4812.000000
37.851390 4972.000000
37.865870 4914.000000
37.880350 4903.000000
37.894840 4924.000000
37.909320 5029.000000
37.923800 4921.000000
37.938290 4848.000000
37.952770 4921.000000
37.967250 4986.000000
37.981740 4900.000000
37.996220 4770.000000
38.010700 4852.000000
38.025190 4940.000000
38.039670 4826.000000
38.054150 4831.000000
38.068640 4885.000000
38.083120 4854.000000
38.097600 4745.000000
38.112090 4817.000000
38.126570 4763.000000
38.141050 4797.000000
38.155540 4813.000000
38.170020 4766.000000
38.184500 4754.000000
38.198990 4739.000000
38.213470 4910.000000
38.227950 4850.000000
38.242440 4915.000000
38.256920 4811.000000
38.271400 4893.000000
38.285880 4771.000000
38.300370 4956.000000
38.314850 4810.000000
38.329330 4717.000000
38.343820 4911.000000
38.358300 4789.000000
38.372780 4597.000000
38.387270 4752.000000
38.401750 4663.000000
38.416230 4618.000000
38.430720 4720.000000
38.445200 4765.000000
38.459680 4603.000000
38.474170 4629.000000
38.488650 4777.000000
38.503130 4852.000000
38.517620 4662.000000
38.532100 4794.000000
38.546580 4632.000000
38.561070 4681.000000
38.575550 4677.000000
38.590030 4780.000000
38.604520 4766.000000
38.619000 4698.000000
38.633480 4704.000000
38.647970 4704.000000
38.662450 4858.000000
38.676930 4755.000000
38.691420 4834.000000
38.705900 4882.000000
38.720380 4789.000000
38.734870 4649.000000
38.749350 4718.000000
38.763830 4758.000000
38.778320 4845.000000
38.792800 4774.000000
38.807280 4840.000000
38.821770 4708.000000
38.836250 4772.000000
38.850730 4777.000000
38.865220 4852.000000
38.879700 4829.000000
38.894180 4876.000000
38.908670 4742.000000
38.923150 4820.000000
38.937630 4942.000000
38.952120 4899.000000
38.966600 4874.000000
38.981080 4823.000000
38.995570 4779.000000
39.010050 4757.000000
39.024530 4897.000000
39.039020 4666.000000
39.053500 4976.000000
39.067980 4721.000000
39.082470 4909.000000
39.096950 4750.000000
39.111430 4631.000000
39.125920 4839.000000
39.140400 4622.000000
39.154880 4713.000000
39.169370 4661.000000
39.183850 4723.000000
39.198330 4839.000000
39.212820 4673.000000
39.227300 4693.000000
39.241780 4651.000000
39.256270 4753.000000
39.270750 4736.000000
39.285230 4695.000000
39.299720 4628.000000
39.314200 4685.000000
39.328680 4636.000000
39.343170 4594.000000
39.357650 4736.000000
39.372130 4667.000000
39.386620 4778.000000
39.401100 4644.000000
39.415580 4642.000000
39.430070 4640.000000
39.444550 4656.000000
39.459030 4641.000000
39.473520 4545.000000
39.488000 4622.000000
39.502480 4605.000000
39.516970 4557.000000
39.531450 4562.000000
39.545930 4482.000000
39.560420 4679.000000
39.574900 4656.000000
39.589380 4708.000000
39.603870 4540.000000
39.618350 4676.000000
39.632830 4574.000000
39.647320 4555.000000
39.661800 4511.000000
39.676280 4594.000000
39.690770 4633.000000
39.705250 4723.000000
39.719730 4665.000000
39.734210 4640.000000
39.748700 4475.000000
39.763180 4621.000000
39.777660 4621.000000
39.792150 4577.000000
39.806630 4614.000000
39.821110 4721.000000
39.835600 4744.000000
39.850080 4680.000000
39.864560 4701.000000
39.879050 4495.000000
39.893530 4447.000000
39.908010 4684.000000
39.922500 4645.000000
39.936980 4628.000000
39.951460 4611.000000
39.965950 4594.000000
39.980430 4659.000000
39.994910 4679.000000
40.009400 4556.000000
40.023880 4555.000000
40.038360 4673.000000
40.052850 4617.000000
40.067330 4666.000000
40.081810 4614.000000
40.096300 4534.000000
40.110780 4563.000000
40.125260 4604.000000
40.139750 4618.000000
40.154230 4572.000000
40.168710 4634.000000
40.183200 4536.000000
40.197680 4528.000000
40.212160 4625.000000
40.226650 4598.000000
40.241130 4579.000000
40.255610 4557.000000
40.270100 4627.000000
40.284580 4540.000000
40.299060 4465.000000
40.313550 4560.000000
40.328030 4583.000000
40.342510 4483.000000
40.357000 4619.000000
40.371480 4567.000000
40.385960 4671.000000
40.400450 4535.000000
40.414930 4628.000000
40.429410 4501.000000
40.443900 4503.000000
40.458380 4512.000000
40.472860 4643.000000
40.487350 4496.000000
40.501830 4511.000000
40.516310 4510.000000
40.530800 4506.000000
40.545280 4440.000000
40.559760 4499.000000
40.574250 4541.000000
40.588730 4539.000000
40.603210 4590.000000
40.617700 4527.000000
40.632180 4585.000000
40.646660 4509.000000
40.661150 4494.000000
40.675630 4641.000000
40.690110 4619.000000
40.704600 4588.000000
40.719080 4663.000000
40.733560 4588.000000
40.748050 4413.000000
40.762530 4590.000000
40.777010 4501.000000
40.791500 4451.000000
40.805980 4510.000000
40.820460 4491.000000
40.834950 4486.000000
40.849430 4503.000000
40.863910 4532.000000
40.878400 4518.000000
40.892880 4653.000000
40.907360 4567.000000
40.921850 4457.000000
40.936330 4481.000000
40.950810 4377.000000
40.965300 4346.000000
40.979780 4609.000000
40.994260 4471.000000
41.008750 4506.000000
41.023230 4544.000000
41.037710 4548.000000
41.052200 4527.000000
41.066680 4587.000000
41.081160 4516.000000
41.095650 4510.000000
41.110130 4425.000000
41.124610 4509.000000
41.139100 4588.000000
41.153580 4529.000000
41.168060 4514.000000
41.182540 4471.000000
41.197030 4617.000000
41.211510 4500.000000
41.225990 4572.000000
41.240480 4590.000000
41.254960 4457.000000
41.269440 4461.000000
41.283930 4482.000000
41.298410 4640.000000
41.312890 4528.000000
41.327380 4610.000000
41.341860 4537.000000
41.356340 4562.000000
41.370830 4470.000000
41.385310 4573.000000
41.399790 4500.000000
41.414280 4510.000000
41.428760 4611.000000
41.443240 4508.000000
41.457730 4630.000000
41.472210 4552.000000
41.486690 4534.000000
41.501180 4618.000000
41.515660 4630.000000
41.530140 4569.000000
41.544630 4662.000000
41.559110 4599.000000
41.573590 4632.000000
41.588080 4667.000000
41.602560 4420.000000
41.617040 4512.000000
41.631530 4539.000000
41.646010 4585.000000
41.660490 4564.000000
41.674980 4712.000000
41.689460 4559.000000
41.703940 4630.000000
41.718430 4582.000000
41.732910 4495.000000
41.747390 4424.000000
41.761880 4555.000000
41.776360 4499.000000
41.790840 4497.000000
41.805330 4563.000000
41.819810 4444.000000
41.834290 4573.000000
41.848780 4538.000000
41.863260 4571.000000
41.877740 4710.000000
41.892230 4498.000000
41.906710 4700.000000
41.921190 4543.000000
41.935680 4536.000000
41.950160 4533.000000
41.964640 4695.000000
41.979130 4620.000000
41.993610 4575.000000
42.008090 4480.000000
42.022580 4582.000000
42.037060 4491.000000
42.051540 4672.000000
42.066030 4580.000000
42.080510 4749.000000
42.094990 4554.000000
42.109480 4513.000000
42.123960 4695.000000
42.138440 4559.000000
42.152930 4533.000000
42.167410 4649.000000
42.181890 4627.000000
42.196380 4730.000000
42.210860 4692.000000
42.225340 4707.000000
42.239830 4776.000000
42.254310 4780.000000
42.268790 4637.000000
42.283280 4775.000000
42.297760 4845.000000
42.312240 4762.000000
42.326730 4654.000000
42.341210 4875.000000
42.355690 4675.000000
42.370180 4781.000000
42.384660 4791.000000
42.399140 4819.000000
42.413630 4809.000000
42.428110 4845.000000
42.442590 4969.000000
42.457080 4818.000000
42.471560 4790.000000
42.486040 4850.000000
42.500530 4764.000000
42.515010 4697.000000
42.529490 4887.000000
42.543980 4749.000000
42.558460 4795.000000
42.572940 4707.000000
42.587430 4896.000000
42.601910 4943.000000
42.616390 4822.000000
42.630870 4947.000000
42.645360 4981.000000
42.659840 4854.000000
42.674320 4853.000000
42.688810 4977.000000
42.703290 5000.000000
42.717770 4958.000000
42.732260 5013.000000
42.746740 5117.000000
42.761220 4944.000000
42.775710 5187.000000
42.790190 5194.000000
42.804670 5139.000000
42.819160 5300.000000
42.833640 5343.000000
42.848120 5363.000000
42.862610 5382.000000
42.877090 5597.000000
42.891570 5560.000000
42.906060 5813.000000
42.920540 6001.000000
42.935020 6090.000000
42.949510 6334.000000
42.963990 6578.000000
42.978470 6886.000000
42.992960 7124.000000
43.007440 7542.000000
43.021920 8160.000000
43.036410 8760.000000
43.050890 9359.000000
43.065370 10218.000000
43.079860 11008.000000
43.094340 11936.000000
43.108820 12907.000000
43.123310 13875.000000
43.137790 15503.000000
43.152270 16618.000000
43.166760 17950.000000
43.181240 19131.000000
43.195720 20354.000000
43.210210 21655.000000
43.224690 22436.000000
43.239170 22695.000000
43.253660 23034.000000
43.268140 22121.000000
43.282620 21274.000000
43.297110 20156.000000
43.311590 18976.000000
43.326070 17926.000000
43.340560 16889.000000
43.355040 16174.000000
43.369520 15151.000000
43.384010 13880.000000
43.398490 12635.000000
43.412970 11523.000000
43.427460 10587.000000
43.441940 9346.000000
43.456420 8887.000000
43.470910 8311.000000
43.485390 7749.000000
43.499870 7351.000000
43.514360 7120.000000
43.528840 6774.000000
43.543320 6758.000000
43.557810 6378.000000
43.572290 6380.000000
43.586770 6425.000000
43.601260 6178.000000
43.615740 6262.000000
43.630220 6189.000000
43.644710 6249.000000
43.659190 6323.000000
43.673670 6198.000000
43.688160 6325.000000
43.702640 6246.000000
43.717120 6209.000000
43.731610 6200.000000
43.746090 6236.000000
43.760570 6267.000000
43.775060 6105.000000
43.789540 6003.000000
43.804020 5955.000000
43.818510 5867.000000
43.832990 5642.000000
43.847470 5723.000000
43.861960 5650.000000
43.876440 5553.000000
43.890920 5568.000000
43.905410 5295.000000
43.919890 5390.000000
43.934370 5245.000000
43.948860 5101.000000
43.963340 5034.000000
43.977820 4876.000000
43.992310 4867.000000
44.006790 5000.000000
44.021270 4850.000000
44.035760 4855.000000
44.050240 4817.000000
44.064720 4736.000000
44.079200 4765.000000
44.093690 4747.000000
44.108170 4672.000000
44.122650 4670.000000
44.137140 4755.000000
44.151620 4574.000000
44.166100 4595.000000
44.180590 4665.000000
44.195070 4743.000000
44.209550 4738.000000
44.224040 4675.000000
44.238520 4620.000000
44.253000 4732.000000
44.267490 4699.000000
44.281970 4573.000000
44.296450 4674.000000
44.310940 4607.000000
44.325420 4634.000000
44.339900 4752.000000
44.354390 4531.000000
44.368870 4772.000000
44.383350 4696.000000
44.397840 4583.000000
44.412320 4637.000000
44.426800 4582.000000
44.441290 4659.000000
44.455770 4680.000000
44.470250 4683.000000
44.484740 4770.000000
44.499220 4735.000000
44.513700 4829.000000
44.528190 4790.000000
44.542670 4777.000000
44.557150 4769.000000
44.571640 4715.000000
44.586120 4689.000000
44.600600 4756.000000
44.615090 4762.000000
44.629570 4858.000000
44.644050 4874.000000
44.658540 4857.000000
44.673020 5016.000000
44.687500 5008.000000
44.701990 4931.000000
44.716470 4950.000000
44.730950 4988.000000
44.745440 4983.000000
44.759920 4956.000000
44.774400 4895.000000
44.788890 4893.000000
44.803370 5034.000000
44.817850 4971.000000
44.832340 4859.000000
44.846820 4997.000000
44.861300 4787.000000
44.875790 4940.000000
44.890270 4713.000000
44.904750 4842.000000
44.919240 4844.000000
44.933720 4883.000000
44.948200 4732.000000
44.962690 4614.000000
44.977170 4681.000000
44.991650 4532.000000
45.006140 4612.000000
45.020620 4632.000000
45.035100 4568.000000
45.049590 4634.000000
45.064070 4420.000000
45.078550 4538.000000
45.093040 4527.000000
45.107520 4536.000000
45.122000 4627.000000
45.136490 4406.000000
45.150970 4624.000000
45.165450 4521.000000
45.179940 4505.000000
45.194420 4482.000000
45.208900 4512.000000
45.223390 4631.000000
45.237870 4536.000000
45.252350 4528.000000
45.266840 4499.000000
45.281320 4478.000000
45.295800 4427.000000
45.310290 4491.000000
45.324770 4522.000000
45.339250 4393.000000
45.353740 4519.000000
45.368220 4443.000000
45.382700 4506.000000
45.397190 4404.000000
45.411670 4359.000000
45.426150 4302.000000
45.440640 4453.000000
45.455120 4409.000000
45.469600 4358.000000
45.484090 4500.000000
45.498570 4469.000000
45.513050 4609.000000
45.527530 4350.000000
45.542020 4485.000000
45.556500 4444.000000
45.570980 4436.000000
45.585470 4461.000000
45.599950 4395.000000
45.614430 4397.000000
45.628920 4459.000000
45.643400 4526.000000
45.657880 4562.000000
45.672370 4496.000000
45.686850 4411.000000
45.701330 4489.000000
45.715820 4469.000000
45.730300 4401.000000
45.744780 4469.000000
45.759270 4399.000000
45.773750 4282.000000
45.788230 4375.000000
45.802720 4510.000000
45.817200 4297.000000
45.831680 4466.000000
45.846170 4406.000000
45.860650 4448.000000
45.875130 4427.000000
45.889620 4417.000000
45.904100 4497.000000
45.918580 4512.000000
45.933070 4397.000000
45.947550 4484.000000
45.962030 4359.000000
45.976520 4456.000000
45.991000 4501.000000
46.005480 4445.000000
46.019970 4349.000000
46.034450 4415.000000
46.048930 4437.000000
46.063420 4432.000000
46.077900 4451.000000
46.092380 4398.000000
46.106870 4392.000000
46.121350 4458.000000
46.135830 4470.000000
46.150320 4433.000000
46.164800 4301.000000
46.179280 4419.000000
46.193770 4408.000000
46.208250 4348.000000
46.222730 4340.000000
46.237220 4516.000000
46.251700 4463.000000
46.266180 4392.000000
46.280670 4414.000000
46.295150 4447.000000
46.309630 4345.000000
46.324120 4498.000000
46.338600 4450.000000
46.353080 4351.000000
46.367570 4368.000000
46.382050 4428.000000
46.396530 4347.000000
46.411020 4458.000000
46.425500 4408.000000
46.439980 4488.000000
46.454470 4456.000000
46.468950 4274.000000
46.483430 4404.000000
46.497920 4398.000000
46.512400 4374.000000
46.526880 4365.000000
46.541370 4451.000000
46.555850 4474.000000
46.570330 4443.000000
46.584820 4287.000000
46.599300 4465.000000
46.613780 4382.000000
46.628270 4411.000000
46.642750 4567.000000
46.657230 4487.000000
46.671720 4224.000000
46.686200 4348.000000
46.700680 4498.000000
46.715170 4289.000000
46.729650 4521.000000
46.744130 4475.000000
46.758620 4426.000000
46.773100 4374.000000
46.787580 4511.000000
46.802070 4453.000000
46.816550 4360.000000
46.831030 4481.000000
46.845520 4393.000000
46.860000 4496.000000
46.874480 4336.000000
46.888970 4369.000000
46.903450 4385.000000
46.917930 4589.000000
46.932420 4433.000000
46.946900 4385.000000
46.961380 4393.000000
46.975860 4397.000000
46.990350 4529.000000
47.004830 4477.000000
47.019310 4572.000000
47.033800 4428.000000
47.048280 4375.000000
47.062760 4381.000000
47.077250 4424.000000
47.091730 4514.000000
47.106210 4577.000000
47.120700 4579.000000
47.135180 4525.000000
47.149660 4528.000000
47.164150 4567.000000
47.178630 4531.000000
47.193110 4471.000000
47.207600 4562.000000
47.222080 4661.000000
47.236560 4707.000000
47.251050 4758.000000
47.265530 4679.000000
47.280010 4636.000000
47.294500 4777.000000
47.308980 4741.000000
47.323460 4867.000000
47.337950 4818.000000
47.352430 4835.000000
47.366910 4810.000000
47.381400 4676.000000
47.395880 4760.000000
47.410360 4753.000000
47.424850 4794.000000
47.439330 4707.000000
47.453810 4685.000000
47.468300 4652.000000
47.482780 4805.000000
47.497260 4712.000000
47.511750 4588.000000
47.526230 4588.000000
47.540710 4567.000000
47.555200 4492.000000
47.569680 4549.000000
47.584160 4546.000000
47.598650 4572.000000
47.613130 4539.000000
47.627610 4428.000000
47.642100 4509.000000
47.656580 4561.000000
47.671060 4536.000000
47.685550 4615.000000
47.700030 4584.000000
47.714510 4546.000000
47.729000 4545.000000
47.743480 4561.000000
47.757960 4423.000000
47.772450 4519.000000
47.786930 4540.000000
47.801410 4423.000000
47.815900 4599.000000
47.830380 4491.000000
47.844860 4545.000000
47.859350 4459.000000
47.873830 4596.000000
47.888310 4438.000000
47.902800 4495.000000
47.917280 4440.000000
47.931760 4471.000000
47.946250 4420.000000
47.960730 4498.000000
47.975210 4453.000000
47.989700 4500.000000
48.004180 4520.000000
48.018660 4446.000000
48.033150 4449.000000
48.047630 4435.000000
48.062110 4438.000000
48.076600 4436.000000
48.091080 4480.000000
48.105560 4398.000000
48.120050 4452.000000
48.134530 4439.000000
48.149010 4363.000000
48.163500 4439.000000
48.177980 4389.000000
48.192460 4445.000000
48.206950 4598.000000
48.221430 4410.000000
48.235910 4485.000000
48.250400 4436.000000
48.264880 4430.000000
48.279360 4500.000000
48.293850 4409.000000
48.308330 4413.000000
48.322810 4488.000000
48.337300 4494.000000
48.351780 4512.000000
48.366260 4380.000000
48.380750 4462.000000
48.395230 4412.000000
48.409710 4460.000000
48.424190 4400.000000
48.438680 4433.000000
48.453160 4449.000000
48.467640 4521.000000
48.482130 4495.000000
48.496610 4343.000000
48.511090 4589.000000
48.525580 4517.000000
48.540060 4514.000000
48.554540 4485.000000
48.569030 4452.000000
48.583510 4450.000000
48.597990 4446.000000
48.612480 4320.000000
48.626960 4423.000000
48.641440 4587.000000
48.655930 4446.000000
48.670410 4390.000000
48.684890 4385.000000
48.699380 4355.000000
48.713860 4450.000000
48.728340 4431.000000
48.742830 4412.000000
48.757310 4460.000000
48.771790 4549.000000
48.786280 4356.000000
48.800760 4480.000000
48.815240 4438.000000
48.829730 4476.000000
48.844210 4431.000000
48.858690 4568.000000
48.873180 4486.000000
48.887660 4415.000000
48.902140 4447.000000
48.916630 4392.000000
48.931110 4475.000000
48.945590 4331.000000
48.960080 4382.000000
48.974560 4411.000000
48.989040 4466.000000
49.003530 4484.000000
49.018010 4539.000000
49.032490 4497.000000
49.046980 4346.000000
49.061460 4436.000000
49.075940 4453.000000
49.090430 4479.000000
49.104910 4409.000000
49.119390 4321.000000
49.133880 4437.000000
49.148360 4532.000000
49.162840 4425.000000
49.177330 4493.000000
49.191810 4481.000000
49.206290 4357.000000
49.220780 4395.000000
49.235260 4630.000000
49.249740 4368.000000
49.264230 4438.000000
49.278710 4400.000000
49.293190 4452.000000
49.307680 4429.000000
49.322160 4374.000000
49.336640 4427.000000
49.351130 4425.000000
49.365610 4411.000000
49.380090 4381.000000
49.394580 4536.000000
49.409060 4466.000000
49.423540 4456.000000
49.438030 4365.000000
49.452510 4456.000000
49.466990 4406.000000
49.481480 4401.000000
49.495960 4340.000000
49.510440 4394.000000
49.524930 4531.000000
49.539410 4403.000000
49.553890 4268.000000
49.568380 4449.000000
49.582860 4349.000000
49.597340 4461.000000
49.611830 4390.000000
49.626310 4349.000000
49.640790 4350.000000
49.655280 4393.000000
49.669760 4427.000000
49.684240 4463.000000
49.698730 4442.000000
49.713210 4516.000000
49.727690 4385.000000
49.742180 4402.000000
49.756660 4398.000000
49.771140 4469.000000
49.785630 4483.000000
49.800110 4445.000000
49.814590 4376.000000
49.829080 4499.000000
49.843560 4326.000000
49.858040 4434.000000
49.872520 4408.000000
49.887010 4470.000000
49.901490 4397.000000
49.915970 4373.000000
49.930460 4432.000000
49.944940 4364.000000
49.959420 4446.000000
49.973910 4418.000000
49.988390 4289.000000
50.002870 4443.000000
50.017360 4377.000000
50.031840 4419.000000
50.046320 4423.000000
50.060810 4442.000000
50.075290 4384.000000
50.089770 4474.000000
50.104260 4292.000000
50.118740 4454.000000
50.133220 4418.000000
50.147710 4507.000000
50.162190 4355.000000
50.176670 4564.000000
50.191160 4529.000000
50.205640 4388.000000
50.220120 4397.000000
50.234610 4571.000000
50.249090 4411.000000
50.263570 4406.000000
50.278060 4480.000000
50.292540 4477.000000
50.307020 4535.000000
50.321510 4386.000000
50.335990 4526.000000
50.350470 4490.000000
50.364960 4491.000000
50.379440 4492.000000
50.393920 4368.000000
50.408410 4456.000000
50.422890 4440.000000
50.437370 4512.000000
50.451860 4374.000000
50.466340 4462.000000
50.480820 4447.000000
50.495310 4424.000000
50.509790 4542.000000
50.524270 4435.000000
50.538760 4563.000000
50.553240 4709.000000
50.567720 4504.000000
50.582210 4671.000000
50.596690 4620.000000
50.611170 4594.000000
50.625660 4506.000000
50.640140 4702.000000
50.654620 4627.000000
50.669110 4723.000000
50.683590 4542.000000
50.698070 4721.000000
50.712560 4719.000000
50.727040 4738.000000
50.741520 4641.000000
50.756010 4740.000000
50.770490 4798.000000
50.784970 4850.000000
50.799460 4767.000000
50.813940 4802.000000
50.828420 4954.000000
50.842910 4971.000000
50.857390 4860.000000
50.871870 4807.000000
50.886360 4971.000000
50.900840 4874.000000
50.915320 4868.000000
50.929810 5055.000000
50.944290 5024.000000
50.958770 4777.000000
50.973260 4991.000000
50.987740 4893.000000
51.002220 4777.000000
51.016710 4853.000000
51.031190 4860.000000
51.045670 4847.000000
51.060160 4824.000000
51.074640 4852.000000
51.089120 4864.000000
51.103610 4682.000000
51.118090 4689.000000
51.132570 4849.000000
51.147060 4586.000000
51.161540 4705.000000
51.176020 4831.000000
51.190510 4895.000000
51.204990 4858.000000
51.219470 4616.000000
51.233960 4721.000000
51.248440 4701.000000
51.262920 4665.000000
51.277410 4690.000000
51.291890 4618.000000
51.306370 4599.000000
51.320850 4571.000000
51.335340 4596.000000
51.349820 4682.000000
51.364300 4651.000000
51.378790 4650.000000
51.393270 4771.000000
51.407750 4513.000000
51.422240 4624.000000
51.436720 4553.000000
51.451200 4561.000000
51.465690 4589.000000
51.480170 4734.000000
51.494650 4615.000000
51.509140 4723.000000
51.523620 4585.000000
51.538100 4683.000000
51.552590 4705.000000
51.567070 4602.000000
51.581550 4729.000000
51.596040 4775.000000
51.610520 4780.000000
51.625000 4768.000000
51.639490 4683.000000
51.653970 4703.000000
51.668450 4781.000000
51.682940 4751.000000
51.697420 4754.000000
51.711900 4739.000000
51.726390 4755.000000
51.740870 4813.000000
51.755350 4777.000000
51.769840 4778.000000
51.784320 4737.000000
51.798800 4629.000000
51.813290 4815.000000
51.827770 4683.000000
51.842250 4664.000000
51.856740 4626.000000
51.871220 4645.000000
51.885700 4611.000000
51.900190 4643.000000
51.914670 4629.000000
51.929150 4725.000000
51.943640 4613.000000
51.958120 4582.000000
51.972600 4683.000000
51.987090 4668.000000
52.001570 4572.000000
52.016050 4514.000000
52.030540 4689.000000
52.045020 4710.000000
52.059500 4632.000000
52.073990 4519.000000
52.088470 4555.000000
52.102950 4579.000000
52.117440 4572.000000
52.131920 4685.000000
52.146400 4567.000000
52.160890 4557.000000
52.175370 4691.000000
52.189850 4644.000000
52.204340 4601.000000
52.218820 4640.000000
52.233300 4590.000000
52.247790 4627.000000
52.262270 4579.000000
52.276750 4619.000000
52.291240 4508.000000
52.305720 4556.000000
52.320200 4648.000000
52.334690 4669.000000
52.349170 4615.000000
52.363650 4684.000000
52.378140 4677.000000
52.392620 4727.000000
52.407100 4603.000000
52.421590 4564.000000
52.436070 4710.000000
52.450550 4792.000000
52.465040 4640.000000
52.479520 4778.000000
52.494000 4729.000000
52.508490 4677.000000
52.522970 4588.000000
52.537450 4675.000000
52.551940 4633.000000
52.566420 4787.000000
52.580900 4743.000000
52.595390 4704.000000
52.609870 4741.000000
52.624350 4809.000000
52.638840 4784.000000
52.653320 4912.000000
52.667800 4765.000000
52.682290 4811.000000
52.696770 4670.000000
52.711250 4775.000000
52.725740 4934.000000
52.740220 4734.000000
52.754700 4920.000000
52.769180 4771.000000
52.783670 4907.000000
52.798150 4886.000000
52.812630 4856.000000
52.827120 4794.000000
52.841600 4716.000000
52.856080 4731.000000
52.870570 4930.000000
52.885050 4850.000000
52.899530 4909.000000
52.914020 4809.000000
52.928500 4854.000000
52.942980 5018.000000
52.957470 4838.000000
52.971950 5005.000000
52.986430 4854.000000
53.000920 4706.000000
53.015400 4877.000000
53.029880 4911.000000
53.044370 4940.000000
53.058850 4945.000000
53.073330 4950.000000
53.087820 4876.000000
53.102300 4916.000000
53.116780 5014.000000
53.131270 5110.000000
53.145750 5132.000000
53.160230 5114.000000
53.174720 5164.000000
53.189200 5162.000000
53.203680 5233.000000
53.218170 5383.000000
53.232650 5467.000000
53.247130 5587.000000
53.261620 5768.000000
53.276100 5840.000000
53.290580 5984.000000
53.305070 6272.000000
53.319550 6335.000000
53.334030 6773.000000
53.348520 6933.000000
53.363000 7322.000000
53.377480 7871.000000
53.391970 8436.000000
53.406450 8934.000000
53.420930 9630.000000
53.435420 10435.000000
53.449900 11443.000000
53.464380 12186.000000
53.478870 13407.000000
53.493350 14904.000000
53.507830 15997.000000
53.522320 17366.000000
53.536800 18498.000000
53.551280 19793.000000
53.565770 20844.000000
53.580250 21712.000000
53.594730 22277.000000
53.609220 22406.000000
53.623700 21740.000000
53.638180 20903.000000
53.652670 19845.000000
53.667150 18809.000000
53.681630 17696.000000
53.696120 17050.000000
53.710600 16156.000000
53.725080 15712.000000
53.739570 15298.000000
53.754050 14323.000000
53.768530 13600.000000
53.783020 12458.000000
53.797500 11408.000000
53.811980 10347.000000
53.826470 9465.000000
53.840950 8729.000000
53.855430 7961.000000
53.869920 7432.000000
53.884400 7060.000000
53.898880 6670.000000
53.913370 6487.000000
53.927850 6210.000000
53.942330 6046.000000
53.956820 6073.000000
53.971300 5878.000000
53.985780 5765.000000
54.000270 5542.000000
54.014750 5568.000000
54.029230 5357.000000
54.043720 5446.000000
54.058200 5280.000000
54.072680 5268.000000
54.087170 5242.000000
54.101650 5046.000000
54.116130 5202.000000
54.130620 5104.000000
54.145100 5048.000000
54.159580 4979.000000
54.174070 5059.000000
54.188550 4968.000000
54.203030 4882.000000
54.217510 5010.000000
54.232000 4883.000000
54.246480 4775.000000
54.260960 4848.000000
54.275450 4763.000000
54.289930 4935.000000
54.304410 4859.000000
54.318900 4928.000000
54.333380 4844.000000
54.347860 4839.000000
54.362350 4793.000000
54.376830 4842.000000
54.391310 4839.000000
54.405800 4822.000000
54.420280 4759.000000
54.434760 4750.000000
54.449250 4785.000000
54.463730 4767.000000
54.478210 4826.000000
54.492700 4632.000000
54.507180 4872.000000
54.521660 4704.000000
54.536150 4739.000000
54.550630 4703.000000
54.565110 4671.000000
54.579600 4685.000000
54.594080 4690.000000
54.608560 4687.000000
54.623050 4679.000000
54.637530 4681.000000
54.652010 4647.000000
54.666500 4682.000000
54.680980 4620.000000
54.695460 4716.000000
54.709950 4591.000000
54.724430 4571.000000
54.738910 4651.000000
54.753400 4706.000000
54.767880 4665.000000
54.782360 4705.000000
54.796850 4731.000000
54.811330 4899.000000
54.825810 4711.000000
54.840300 4731.000000
54.854780 4669.000000
54.869260 4689.000000
54.883750 4622.000000
54.898230 4797.000000
54.912710 4818.000000
54.927200 4787.000000
54.941680 4747.000000
54.956160 4718.000000
54.970650 4819.000000
54.985130 4752.000000
54.999610 4669.000000
55.014100 4803.000000
55.028580 4787.000000
55.043060 4698.000000
55.057550 4724.000000
55.072030 4804.000000
55.086510 4819.000000
55.101000 4877.000000
55.115480 4884.000000
55.129960 4843.000000
55.144450 4733.000000
55.158930 4754.000000
55.173410 4796.000000
55.187900 4708.000000
55.202380 4794.000000
55.216860 4694.000000
55.231350 4822.000000
55.245830 4774.000000
55.260310 4879.000000
55.274800 4957.000000
55.289280 4859.000000
55.303760 4855.000000
55.318250 4792.000000
55.332730 4752.000000
55.347210 4844.000000
55.361700 4824.000000
55.376180 4822.000000
55.390660 4901.000000
55.405150 4825.000000
55.419630 4984.000000
55.434110 4836.000000
55.448600 5002.000000
55.463080 4872.000000
55.477560 4961.000000
55.492050 4985.000000
55.506530 5090.000000
55.521010 4968.000000
55.535500 4807.000000
55.549980 5026.000000
55.564460 5044.000000
55.578950 4983.000000
55.593430 5119.000000
55.607910 5048.000000
55.622400 5184.000000
55.636880 5078.000000
55.651360 5021.000000
55.665840 5131.000000
55.680330 5057.000000
55.694810 5167.000000
55.709290 5182.000000
55.723780 5023.000000
55.738260 4919.000000
55.752740 4983.000000
55.767230 5047.000000
55.781710 4947.000000
55.796190 5050.000000
55.810680 4929.000000
55.825160 5118.000000
55.839640 4917.000000
55.854130 4928.000000
55.868610 4890.000000
55.883090 4974.000000
55.897580 4912.000000
55.912060 4957.000000
55.926540 4959.000000
55.941030 4909.000000
55.955510 4925.000000
55.969990 5005.000000
55.984480 4918.000000
55.998960 4973.000000
56.013440 5008.000000
56.027930 5062.000000
56.042410 4949.000000
56.056890 4903.000000
56.071380 5159.000000
56.085860 5144.000000
56.100340 5010.000000
56.114830 5007.000000
56.129310 4980.000000
56.143790 5062.000000
56.158280 5011.000000
56.172760 5109.000000
56.187240 5049.000000
56.201730 4962.000000
56.216210 4998.000000
56.230690 5004.000000
56.245180 4959.000000
56.259660 5263.000000
56.274140 5012.000000
56.288630 5070.000000
56.303110 4994.000000
56.317590 5052.000000
56.332080 5175.000000
56.346560 5180.000000
56.361040 5098.000000
56.375530 5237.000000
56.390010 5012.000000
56.404490 5208.000000
56.418980 5324.000000
56.433460 5326.000000
56.447940 5259.000000
56.462430 5270.000000
56.476910 5311.000000
56.491390 5443.000000
56.505880 5478.000000
56.520360 5427.000000
56.534840 5528.000000
56.549330 5420.000000
56.563810 5686.000000
56.578290 5689.000000
56.592780 5778.000000
56.607260 5821.000000
56.621740 5865.000000
56.636230 6050.000000
56.650710 6104.000000
56.665190 6250.000000
56.679680 6388.000000
56.694160 6605.000000
56.708640 6773.000000
56.723130 7107.000000
56.737610 7189.000000
56.752090 7547.000000
56.766580 7801.000000
56.781060 8162.000000
56.795540 8315.000000
56.810030 8867.000000
56.824510 9258.000000
56.838990 9851.000000
56.853480 10550.000000
56.867960 11436.000000
56.882440 12154.000000
56.896930 13441.000000
56.911410 14852.000000
56.925890 16372.000000
56.940380 17868.000000
56.954860 19976.000000
56.969340 22349.000000
56.983830 24641.000000
56.998310 27534.000000
57.012790 30288.000000
57.027280 33363.000000
57.041760 36502.000000
57.056240 39491.000000
57.070730 42267.000000
57.085210 45450.000000
57.099690 47567.000000
57.114170 49725.000000
57.128660 50023.000000
57.143140 49195.000000
57.157620 47509.000000
57.172110 45221.000000
57.186590 42568.000000
57.201070 39726.000000
57.215560 37050.000000
57.230040 36034.000000
57.244520 34025.000000
57.259010 32563.000000
57.273490 31126.000000
57.287970 30018.000000
57.302460 28061.000000
57.316940 25363.000000
57.331420 23056.000000
57.345910 20302.000000
57.360390 17737.000000
57.374870 15387.000000
57.389360 14048.000000
57.403840 12633.000000
57.418320 11571.000000
57.432810 10695.000000
57.447290 9882.000000
57.461770 9248.000000
57.476260 8750.000000
57.490740 8373.000000
57.505220 8074.000000
57.519710 7584.000000
57.534190 7367.000000
57.548670 7278.000000
57.563160 6932.000000
57.577640 6826.000000
57.592120 6727.000000
57.606610 6621.000000
57.621090 6275.000000
57.635570 6225.000000
57.650060 6269.000000
57.664540 6220.000000
57.679020 5864.000000
57.693510 5938.000000
57.707990 5899.000000
57.722470 5856.000000
57.736960 5705.000000
57.751440 5776.000000
57.765920 5712.000000
57.780410 5550.000000
57.794890 5469.000000
57.809370 5639.000000
57.823860 5439.000000
57.838340 5518.000000
57.852820 5458.000000
57.867310 5314.000000
57.881790 5441.000000
57.896270 5206.000000
57.910760 5301.000000
57.925240 5290.000000
57.939720 5220.000000
57.954210 5297.000000
57.968690 5137.000000
57.983170 5155.000000
57.997660 5099.000000
58.012140 5045.000000
58.026620 5242.000000
58.041110 5068.000000
58.055590 5208.000000
58.070070 5084.000000
58.084560 5088.000000
58.099040 5101.000000
58.113520 4998.000000
58.128010 5100.000000
58.142490 5001.000000
58.156970 5030.000000
58.171460 5049.000000
58.185940 5040.000000
58.200420 4994.000000
58.214910 4977.000000
58.229390 4940.000000
58.243870 4961.000000
58.258360 4924.000000
58.272840 5004.000000
58.287320 4880.000000
58.301810 4930.000000
58.316290 4810.000000
58.330770 4863.000000
58.345260 4846.000000
58.359740 4914.000000
58.374220 4894.000000
58.388710 4980.000000
58.403190 4866.000000
58.417670 4744.000000
58.432160 4959.000000
58.446640 4866.000000
58.461120 4919.000000
58.475610 4917.000000
58.490090 4943.000000
58.504570 4872.000000
58.519060 4945.000000
58.533540 4831.000000
58.548020 4917.000000
58.562500 4831.000000
58.576990 4804.000000
58.591470 4952.000000
58.605950 4860.000000
58.620440 4952.000000
58.634920 4918.000000
58.649400 4742.000000
58.663890 4814.000000
58.678370 4809.000000
58.692850 4788.000000
58.707340 4887.000000
58.721820 4722.000000
58.736300 4719.000000
58.750790 4725.000000
58.765270 4727.000000
58.779750 4814.000000
58.794240 4796.000000
58.808720 4857.000000
58.823200 4705.000000
58.837690 4870.000000
58.852170 4719.000000
58.866650 4663.000000
58.881140 4787.000000
58.895620 4689.000000
58.910100 4720.000000
58.924590 4818.000000
58.939070 4784.000000
58.953550 4731.000000
58.968040 4734.000000
58.982520 4747.000000
58.997000 4662.000000
59.011490 4683.000000
59.025970 4798.000000
59.040450 4679.000000
59.054940 4588.000000
59.069420 4747.000000
59.083900 4752.000000
59.098390 4723.000000
59.112870 4754.000000
59.127350 4869.000000
59.141840 4714.000000
59.156320 4779.000000
59.170800 4698.000000
59.185290 4660.000000
59.199770 4653.000000
59.214250 4701.000000
59.228740 4733.000000
59.243220 4671.000000
59.257700 4675.000000
59.272190 4713.000000
59.286670 4688.000000
59.301150 4762.000000
59.315640 4673.000000
59.330120 4809.000000
59.344600 4578.000000
59.359090 4777.000000
59.373570 4791.000000
59.388050 4726.000000
59.402540 4631.000000
59.417020 4651.000000
59.431500 4774.000000
59.445990 4724.000000
59.460470 4836.000000
59.474950 4646.000000
59.489440 4766.000000
59.503920 4621.000000
59.518400 4644.000000
59.532890 4674.000000
59.547370 4730.000000
59.561850 4655.000000
59.576340 4748.000000
59.590820 4777.000000
59.605300 4766.000000
59.619790 4662.000000
59.634270 4707.000000
59.648750 4676.000000
59.663240 4717.000000
59.677720 4686.000000
59.692200 4546.000000
59.706690 4564.000000
59.721170 4805.000000
59.735650 4643.000000
59.750140 4758.000000
59.764620 4681.000000
59.779100 4643.000000
59.793590 4787.000000
59.808070 4584.000000
59.822550 4726.000000
59.837040 4721.000000
59.851520 4693.000000
59.866000 4740.000000
59.880490 4698.000000
59.894970 4651.000000
59.909450 4684.000000
59.923940 4898.000000
59.938420 4607.000000
59.952900 4625.000000
59.967390 4635.000000
59.981870 4693.000000
59.996350 4689.000000
60.010830 4758.000000
60.025320 4690.000000
60.039800 4757.000000
60.054280 4691.000000
60.068770 4658.000000
60.083250 4744.000000
60.097730 4725.000000
60.112220 4652.000000
60.126700 4744.000000
60.141180 4715.000000
60.155670 4592.000000
60.170150 4749.000000
60.184630 4539.000000
60.199120 4585.000000
60.213600 4765.000000
60.228080 4695.000000
60.242570 4891.000000
60.257050 4643.000000
60.271530 4697.000000
60.286020 4658.000000
60.300500 4858.000000
60.314980 4828.000000
60.329470 4850.000000
60.343950 4870.000000
60.358430 4810.000000
60.372920 4768.000000
60.387400 4788.000000
60.401880 4793.000000
60.416370 4943.000000
60.430850 4800.000000
60.445330 4742.000000
60.459820 4819.000000
60.474300 4842.000000
60.488780 4810.000000
60.503270 4906.000000
60.517750 4964.000000
60.532230 4849.000000
60.546720 4923.000000
60.561200 4879.000000
60.575680 4912.000000
60.590170 4808.000000
60.604650 4764.000000
60.619130 4799.000000
60.633620 4729.000000
60.648100 4917.000000
60.662580 4912.000000
60.677070 4749.000000
60.691550 4918.000000
60.706030 4889.000000
60.720520 4891.000000
60.735000 5053.000000
60.749480 4844.000000
60.763970 4974.000000
60.778450 4963.000000
60.792930 5040.000000
60.807420 4992.000000
60.821900 4845.000000
60.836380 5059.000000
60.850870 4985.000000
60.865350 4927.000000
60.879830 4915.000000
60.894320 4899.000000
60.908800 4923.000000
60.923280 5122.000000
60.937770 4960.000000
60.952250 5020.000000
60.966730 4937.000000
60.981220 4941.000000
60.995700 5005.000000
61.010180 4928.000000
61.024670 4936.000000
61.039150 4932.000000
61.053630 4982.000000
61.068120 5013.000000
61.082600 4929.000000
61.097080 4968.000000
61.111570 4996.000000
61.126050 4890.000000
61.140530 4952.000000
61.155020 4919.000000
61.169500 5018.000000
61.183980 5050.000000
61.198470 5022.000000
61.212950 4900.000000
61.227430 4980.000000
61.241920 4931.000000
61.256400 4794.000000
61.270880 5063.000000
61.285370 5125.000000
61.299850 5042.000000
61.314330 4813.000000
61.328820 5085.000000
61.343300 5045.000000
61.357780 5013.000000
61.372270 5004.000000
61.386750 4994.000000
61.401230 5029.000000
61.415720 4864.000000
61.430200 4834.000000
61.444680 5038.000000
61.459160 5046.000000
61.473650 4882.000000
61.488130 4962.000000
61.502610 4942.000000
61.517100 4907.000000
61.531580 5039.000000
61.546060 5063.000000
61.560550 5037.000000
61.575030 4981.000000
61.589510 5038.000000
61.604000 4925.000000
61.618480 4941.000000
61.632960 5086.000000
61.647450 4992.000000
61.661930 5034.000000
61.676410 4939.000000
61.690900 5032.000000
61.705380 5002.000000
61.719860 5078.000000
61.734350 5244.000000
61.748830 5056.000000
61.763310 5061.000000
61.777800 5178.000000
61.792280 5008.000000
61.806760 5070.000000
61.821250 5087.000000
61.835730 5046.000000
61.850210 5115.000000
61.864700 5183.000000
61.879180 5273.000000
61.893660 5322.000000
61.908150 5115.000000
61.922630 5211.000000
61.937110 5285.000000
61.951600 5328.000000
61.966080 5437.000000
61.980560 5300.000000
61.995050 5301.000000
62.009530 5309.000000
62.024010 5408.000000
62.038500 5549.000000
62.052980 5395.000000
62.067460 5641.000000
62.081950 5448.000000
62.096430 5517.000000
62.110910 5655.000000
62.125400 5794.000000
62.139880 5775.000000
62.154360 5812.000000
62.168850 5917.000000
62.183330 6013.000000
62.197810 6066.000000
62.212300 6127.000000
62.226780 6362.000000
62.241260 6515.000000
62.255750 6760.000000
62.270230 6865.000000
62.284710 7148.000000
62.299200 7404.000000
62.313680 7580.000000
62.328160 7972.000000
62.342650 8244.000000
62.357130 8720.000000
62.371610 8907.000000
62.386100 9584.000000
62.400580 10077.000000
62.415060 10619.000000
62.429550 11410.000000
62.444030 12198.000000
62.458510 13310.000000
62.473000 14631.000000
62.487480 16028.000000
62.501960 17344.000000
62.516450 19435.000000
62.530930 21845.000000
62.545410 24032.000000
62.559900 27568.000000
62.574380 30203.000000
62.588860 33491.000000
62.603350 37389.000000
62.617830 40589.000000
62.632310 44066.000000
62.646800 46665.000000
62.661280 49482.000000
62.675760 52639.000000
62.690250 54386.000000
62.704730 55472.000000
62.719210 55283.000000
62.733700 54201.000000
62.748180 52211.000000
62.762660 49163.000000
62.777150 46042.000000
62.791630 42974.000000
62.806110 40855.000000
62.820600 39348.000000
62.835080 37609.000000
62.849560 36546.000000
62.864050 35192.000000
62.878530 33866.000000
62.893010 32322.000000
62.907490 30056.000000
62.921980 27395.000000
62.936460 24706.000000
62.950940 22080.000000
62.965430 19614.000000
62.979910 17334.000000
62.994390 15176.000000
63.008880 14065.000000
63.023360 12744.000000
63.037840 11533.000000
63.052330 10892.000000
63.066810 9982.000000
63.081290 9407.000000
63.095780 8968.000000
63.110260 8651.000000
63.124740 8193.000000
63.139230 7800.000000
63.153710 7542.000000
63.168190 7449.000000
63.182680 7170.000000
63.197160 6993.000000
63.211640 6722.000000
63.226130 6652.000000
63.240610 6427.000000
63.255090 6438.000000
63.269580 6148.000000
63.284060 6310.000000
63.298540 6124.000000
63.313030 5978.000000
63.327510 5952.000000
63.341990 5981.000000
63.356480 5805.000000
63.370960 5769.000000
63.385440 5823.000000
63.399930 5548.000000
63.414410 5565.000000
63.428890 5510.000000
63.443380 5538.000000
63.457860 5552.000000
63.472340 5414.000000
63.486830 5491.000000
63.501310 5369.000000
63.515790 5279.000000
63.530280 5292.000000
63.544760 5296.000000
63.559240 5284.000000
63.573730 5348.000000
63.588210 5189.000000
63.602690 5261.000000
63.617180 5238.000000
63.631660 5098.000000
63.646140 5120.000000
63.660630 5118.000000
63.675110 5046.000000
63.689590 5191.000000
63.704080 5077.000000
63.718560 5215.000000
63.733040 5073.000000
63.747530 5015.000000
63.762010 5168.000000
63.776490 5057.000000
63.790980 5089.000000
63.805460 5057.000000
63.819940 5030.000000
63.834430 4929.000000
63.848910 4997.000000
63.863390 5009.000000
63.877880 5012.000000
63.892360 4834.000000
63.906840 4909.000000
63.921330 4924.000000
63.935810 4956.000000
63.950290 4983.000000
63.964780 5043.000000
63.979260 4945.000000
63.993740 4915.000000
64.008230 4807.000000
64.022710 4841.000000
64.037190 4779.000000
64.051680 4852.000000
64.066160 4790.000000
64.080640 4880.000000
64.095130 4903.000000
64.109610 4787.000000
64.124090 4808.000000
64.138580 4884.000000
64.153060 4772.000000
64.167540 4766.000000
64.182030 4791.000000
64.196510 4669.000000
64.210990 4810.000000
64.225480 4869.000000
64.239960 4779.000000
64.254440 4763.000000
64.268930 4699.000000
64.283410 4708.000000
64.297890 4751.000000
64.312380 4687.000000
64.326860 4797.000000
64.341340 4580.000000
64.355820 4774.000000
64.370310 4870.000000
64.384790 4690.000000
64.399270 4688.000000
64.413760 4692.000000
64.428240 4827.000000
64.442720 4851.000000
64.457210 4758.000000
64.471690 4841.000000
64.486170 4743.000000
64.500660 4769.000000
64.515140 4761.000000
64.529620 4833.000000
64.544110 4582.000000
64.558590 4650.000000
64.573070 4711.000000
64.587560 4859.000000
64.602040 4668.000000
64.616520 4678.000000
64.631010 4724.000000
64.645490 4804.000000
64.659970 4766.000000
64.674460 4721.000000
64.688940 4825.000000
64.703420 4646.000000
64.717910 4635.000000
64.732390 4658.000000
64.746870 4699.000000
64.761360 4692.000000
64.775840 4840.000000
64.790320 4741.000000
64.804810 4531.000000
64.819290 4685.000000
64.833770 4696.000000
64.848260 4764.000000
64.862740 4717.000000
64.877220 4820.000000
64.891710 4788.000000
64.906190 4872.000000
64.920670 4674.000000
64.935160 4838.000000
64.949640 4733.000000
64.964120 4638.000000
64.978610 4720.000000
64.993090 4771.000000
65.007570 4684.000000
65.022060 4681.000000
65.036540 4820.000000
65.051020 4835.000000
65.065510 4778.000000
65.079990 4711.000000
65.094470 4748.000000
65.108960 4719.000000
65.123440 4848.000000
65.137920 4764.000000
65.152410 4712.000000
65.166890 4666.000000
65.181370 4674.000000
65.195860 4812.000000
65.210340 4666.000000
65.224820 4689.000000
65.239310 4680.000000
65.253790 4569.000000
65.268270 4571.000000
65.282760 4689.000000
65.297240 4800.000000
65.311720 4736.000000
65.326210 4753.000000
65.340690 4755.000000
65.355170 4660.000000
65.369660 4705.000000
65.384140 4766.000000
65.398620 4637.000000
65.413110 4664.000000
65.427590 4606.000000
65.442070 4700.000000
65.456560 4585.000000
65.471040 4648.000000
65.485520 4616.000000
65.500010 4750.000000
65.514490 4623.000000
65.528970 4781.000000
65.543460 4731.000000
65.557940 4732.000000
65.572420 4576.000000
65.586910 4823.000000
65.601390 4850.000000
65.615870 4557.000000
65.630360 4573.000000
65.644840 4689.000000
65.659320 4668.000000
65.673810 4673.000000
65.688290 4569.000000
65.702770 4728.000000
65.717260 4730.000000
65.731740 4751.000000
65.746220 4708.000000
65.760710 4800.000000
65.775190 4652.000000
65.789670 4641.000000
65.804150 4680.000000
65.818640 4811.000000
65.833120 4870.000000
65.847600 4757.000000
65.862090 4887.000000
65.876570 4726.000000
65.891050 4807.000000
65.905540 4817.000000
65.920020 4784.000000
65.934500 4903.000000
65.948990 4901.000000
65.963470 4911.000000
65.977950 4775.000000
65.992440 4849.000000
66.006920 4723.000000
66.021400 4677.000000
66.035890 4856.000000
66.050370 4778.000000
66.064850 4673.000000
66.079340 4660.000000
66.093820 4588.000000
66.108300 4700.000000
66.122790 4734.000000
66.137270 4691.000000
66.151750 4585.000000
66.166240 4746.000000
66.180720 4704.000000
66.195200 4570.000000
66.209690 4694.000000
66.224170 4737.000000
66.238650 4510.000000
66.253140 4672.000000
66.267620 4645.000000
66.282100 4588.000000
66.296590 4556.000000
66.311070 4557.000000
66.325550 4544.000000
66.340040 4520.000000
66.354520 4499.000000
66.369000 4560.000000
66.383490 4730.000000
66.397970 4572.000000
66.412450 4608.000000
66.426940 4627.000000
66.441420 4573.000000
66.455900 4538.000000
66.470390 4599.000000
66.484870 4510.000000
66.499350 4682.000000
66.513840 4689.000000
66.528320 4566.000000
66.542800 4617.000000
66.557290 4409.000000
66.571770 4529.000000
66.586250 4501.000000
66.600740 4658.000000
66.615220 4475.000000
66.629700 4639.000000
66.644190 4570.000000
66.658670 4431.000000
66.673150 4542.000000
66.687640 4653.000000
66.702120 4491.000000
66.716600 4523.000000
66.731090 4503.000000
66.745570 4441.000000
66.760050 4602.000000
66.774540 4368.000000
66.789020 4699.000000
66.803500 4495.000000
66.817990 4502.000000
66.832470 4625.000000
66.846950 4486.000000
66.861440 4457.000000
66.875920 4614.000000
66.890400 4597.000000
66.904890 4545.000000
66.919370 4468.000000
66.933850 4540.000000
66.948340 4508.000000
66.962820 4494.000000
66.977300 4616.000000
66.991790 4446.000000
67.006270 4431.000000
67.020750 4510.000000
67.035240 4576.000000
67.049720 4511.000000
67.064200 4486.000000
67.078690 4430.000000
67.093170 4509.000000
67.107650 4475.000000
67.122140 4527.000000
67.136620 4567.000000
67.151100 4478.000000
67.165590 4619.000000
67.180070 4498.000000
67.194550 4661.000000
67.209040 4710.000000
67.223520 4574.000000
67.238000 4592.000000
67.252480 4544.000000
67.266970 4610.000000
67.281450 4593.000000
67.295930 4474.000000
67.310420 4635.000000
67.324900 4513.000000
67.339380 4574.000000
67.353870 4562.000000
67.368350 4524.000000
67.382830 4504.000000
67.397320 4333.000000
67.411800 4533.000000
67.426280 4528.000000
67.440770 4510.000000
67.455250 4532.000000
67.469730 4517.000000
67.484220 4578.000000
67.498700 4525.000000
67.513180 4542.000000
67.527670 4452.000000
67.542150 4481.000000
67.556630 4552.000000
67.571120 4547.000000
67.585600 4538.000000
67.600080 4591.000000
67.614570 4551.000000
67.629050 4493.000000
67.643530 4460.000000
67.658020 4554.000000
67.672500 4523.000000
67.686980 4636.000000
67.701470 4465.000000
67.715950 4519.000000
67.730430 4643.000000
67.744920 4609.000000
67.759400 4533.000000
67.773880 4479.000000
67.788370 4528.000000
67.802850 4531.000000
67.817330 4590.000000
67.831820 4512.000000
67.846300 4476.000000
67.860780 4554.000000
67.875270 4588.000000
67.889750 4433.000000
67.904230 4519.000000
67.918720 4635.000000
67.933200 4561.000000
67.947680 4560.000000
67.962170 4618.000000
67.976650 4710.000000
67.991130 4560.000000
68.005620 4645.000000
68.020100 4461.000000
68.034580 4611.000000
68.049070 4555.000000
68.063550 4548.000000
68.078030 4569.000000
68.092520 4679.000000
68.107000 4501.000000
68.121480 4670.000000
68.135970 4706.000000
68.150450 4686.000000
68.164930 4543.000000
68.179420 4490.000000
68.193900 4490.000000
68.208380 4702.000000
68.222870 4532.000000
68.237350 4498.000000
68.251830 4521.000000
68.266320 4583.000000
68.280800 4616.000000
68.295280 4628.000000
68.309770 4537.000000
68.324250 4608.000000
68.338730 4561.000000
68.353220 4649.000000
68.367700 4446.000000
68.382180 4489.000000
68.396670 4650.000000
68.411150 4587.000000
68.425630 4510.000000
68.440120 4458.000000
68.454600 4563.000000
68.469080 4485.000000
68.483570 4450.000000
68.498050 4537.000000
68.512530 4423.000000
68.527020 4445.000000
68.541500 4459.000000
68.555980 4537.000000
68.570470 4543.000000
68.584950 4430.000000
68.599430 4395.000000
68.613920 4603.000000
68.628400 4557.000000
68.642880 4585.000000
68.657370 4627.000000
68.671850 4550.000000
68.686330 4437.000000
68.700810 4569.000000
68.715300 4563.000000
68.729780 4420.000000
68.744260 4505.000000
68.758750 4628.000000
68.773230 4467.000000
68.787710 4602.000000
68.802200 4347.000000
68.816680 4431.000000
68.831160 4523.000000
68.845650 4376.000000
68.860130 4607.000000
68.874610 4486.000000
68.889100 4449.000000
68.903580 4458.000000
68.918060 4547.000000
68.932550 4481.000000
68.947030 4548.000000
68.961510 4584.000000
68.976000 4581.000000
68.990480 4509.000000
69.004960 4533.000000
69.019450 4487.000000
69.033930 4553.000000
69.048410 4640.000000
69.062900 4561.000000
69.077380 4640.000000
69.091860 4585.000000
69.106350 4632.000000
69.120830 4571.000000
69.135310 4399.000000
69.149800 4648.000000
69.164280 4552.000000
69.178760 4559.000000
69.193250 4610.000000
69.207730 4448.000000
69.222210 4645.000000
69.236700 4554.000000
69.251180 4649.000000
69.265660 4662.000000
69.280150 4667.000000
69.294630 4564.000000
69.309110 4561.000000
69.323600 4581.000000
69.338080 4551.000000
69.352560 4524.000000
69.367050 4429.000000
69.381530 4624.000000
69.396010 4504.000000
69.410500 4670.000000
69.424980 4608.000000
69.439460 4499.000000
69.453950 4508.000000
69.468430 4565.000000
69.482910 4404.000000
69.497400 4592.000000
69.511880 4502.000000
69.526360 4428.000000
69.540850 4443.000000
69.555330 4563.000000
69.569810 4526.000000
69.584300 4533.000000
69.598780 4582.000000
69.613260 4517.000000
69.627750 4413.000000
69.642230 4503.000000
69.656710 4592.000000
69.671200 4551.000000
69.685680 4601.000000
69.700160 4728.000000
69.714650 4558.000000
69.729130 4575.000000
69.743610 4458.000000
69.758100 4602.000000
69.772580 4456.000000
69.787060 4414.000000
69.801550 4604.000000
69.816030 4515.000000
69.830510 4548.000000
69.845000 4416.000000
69.859480 4540.000000
69.873960 4504.000000
69.888450 4528.000000
69.902930 4505.000000
69.917410 4542.000000
69.931900 4531.000000
69.946380 4394.000000
69.960860 4541.000000
69.975350 4398.000000
69.989830 4535.000000
70.004310 4579.000000
