5.00000 3242.000
5.01975 3268.000
5.03950 3213.000
5.05925 3275.000
5.07900 3197.000
5.09875 3281.000
5.11850 3379.000
5.13825 3213.000
5.15800 3210.000
5.17775 3127.000
5.19750 3215.000
5.21725 3113.000
5.23700 3170.000
5.25675 3213.000
5.27650 3254.000
5.29625 3243.000
5.31600 3149.000
5.33575 3218.000
5.35550 3122.000
5.37525 3201.000
5.39500 3218.000
5.41475 3175.000
5.43450 3118.000
5.45425 3101.000
5.47400 3142.000
5.49375 3193.000
5.51350 3142.000
5.53325 3378.000
5.55300 3534.000
5.57275 3400.000
5.59250 3593.000
5.61225 3646.000
5.63200 3716.000
5.65175 3656.000
5.67150 3698.000
5.69125 3619.000
5.71100 3641.000
5.73075 3444.000
5.75050 3296.000
5.77025 3230.000
5.79000 3238.000
5.80975 3090.000
5.82950 3107.000
5.84925 3169.000
5.86900 2976.000
5.88875 3070.000
5.90850 2968.000
5.92825 2888.000
5.94800 2840.000
5.96775 2836.000
5.98750 2947.000
6.00724 2829.000
6.02699 2841.000
6.04674 2869.000
6.06649 2831.000
6.08624 2794.000
6.10599 2696.000
6.12574 2794.000
6.14549 2802.000
6.16524 2725.000
6.18499 2739.000
6.20474 2752.000
6.22449 2748.000
6.24424 2687.000
6.26399 2689.000
6.28374 2705.000
6.30349 2638.000
6.32324 2617.000
6.34299 2663.000
6.36274 2632.000
6.38249 2639.000
6.40224 2614.000
6.42199 2789.000
6.44174 2622.000
6.46149 2605.000
6.48124 2614.000
6.50099 2689.000
6.52074 2580.000
6.54049 2509.000
6.56024 2587.000
6.57999 2664.000
6.59974 2569.000
6.61949 2558.000
6.63924 2498.000
6.65899 2658.000
6.67874 2658.000
6.69849 2536.000
6.71824 2552.000
6.73799 2600.000
6.75774 2551.000
6.77749 2544.000
6.79724 2467.000
6.81699 2598.000
6.83674 2649.000
6.85649 2614.000
6.87624 2385.000
6.89599 2410.000
6.91574 2477.000
6.93549 2490.000
6.95524 2617.000
6.97499 2449.000
6.99474 2363.000
7.01449 2361.000
7.03424 2418.000
7.05399 2400.000
7.07374 2462.000
7.09349 2347.000
7.11324 2486.000
7.13299 2473.000
7.15274 2398.000
7.17249 2421.000
7.19224 2408.000
7.21199 2499.000
7.23174 2423.000
7.25149 2492.000
7.27124 2402.000
7.29099 2384.000
7.31074 2421.000
7.33049 2482.000
7.35024 2448.000
7.36999 2416.000
7.38974 2447.000
7.40949 2427.000
7.42924 2499.000
7.44899 2479.000
7.46874 2414.000
7.48849 2401.000
7.50824 2370.000
7.52799 2441.000
7.54774 2468.000
7.56749 2392.000
7.58724 2456.000
7.60699 2416.000
7.62674 2373.000
7.64649 2344.000
7.66624 2293.000
7.68599 2452.000
7.70574 2402.000
7.72549 2421.000
7.74524 2296.000
7.76499 2326.000
7.78474 2307.000
7.80449 2361.000
7.82424 2266.000
7.84399 2315.000
7.86374 2300.000
7.88349 2370.000
7.90324 2268.000
7.92299 2246.000
7.94274 2239.000
7.96249 2317.000
7.98223 2381.000
8.00198 2334.000
8.02173 2394.000
8.04148 2274.000
8.06123 2222.000
8.08098 2331.000
8.10073 2221.000
8.12048 2265.000
8.14023 2282.000
8.15998 2276.000
8.17973 2283.000
8.19948 2296.000
8.21923 2264.000
8.23898 2223.000
8.25873 2271.000
8.27848 2191.000
8.29823 2241.000
8.31798 2221.000
8.33773 2271.000
8.35748 2222.000
8.37723 2189.000
8.39698 2228.000
8.41673 2217.000
8.43648 2226.000
8.45623 2138.000
8.47598 2141.000
8.49573 2209.000
8.51548 2178.000
8.53523 2189.000
8.55498 2208.000
8.57473 2194.000
8.59448 2260.000
8.61423 2225.000
8.63398 2194.000
8.65373 2210.000
8.67348 2169.000
8.69323 2192.000
8.71298 2168.000
8.73273 2181.000
8.75248 2243.000
8.77223 2178.000
8.79198 2159.000
8.81173 2250.000
8.83148 2205.000
8.85123 2094.000
8.87098 2148.000
8.89073 2210.000
8.91048 2170.000
8.93023 2058.000
8.94998 2231.000
8.96973 2184.000
8.98948 2170.000
9.00923 2235.000
9.02898 2185.000
9.04873 2164.000
9.06848 2056.000
9.08823 2164.000
9.10798 2151.000
9.12773 2222.000
9.14748 2264.000
9.16723 2149.000
9.18698 2263.000
9.20673 2233.000
9.22648 2241.000
9.24623 2264.000
9.26598 2284.000
9.28573 2201.000
9.30548 2279.000
9.32523 2257.000
9.34498 2282.000
9.36473 2230.000
9.38448 2301.000
9.40423 2258.000
9.42398 2228.000
9.44373 2298.000
9.46348 2254.000
9.48323 2154.000
9.50298 2263.000
9.52273 2095.000
9.54248 2119.000
9.56223 2118.000
9.58198 2137.000
9.60173 2132.000
9.62148 2166.000
9.64123 2188.000
9.66098 2195.000
9.68073 2217.000
9.70048 2205.000
9.72023 2176.000
9.73998 2239.000
9.75973 2177.000
9.77948 2203.000
9.79923 2243.000
9.81898 2239.000
9.83873 2214.000
9.85848 2208.000
9.87823 2162.000
9.89798 2244.000
9.91773 2316.000
9.93748 2258.000
9.95722 2416.000
9.97697 2453.000
9.99672 2638.000
10.01647 2653.000
10.03622 2902.000
10.05597 3149.000
10.07572 3412.000
10.09547 3628.000
10.11522 3862.000
10.13497 4025.000
10.15472 3773.000
10.17447 3460.000
10.19422 3119.000
10.21397 2838.000
10.23372 2636.000
10.25347 2543.000
10.27322 2391.000
10.29297 2344.000
10.31272 2243.000
10.33247 2229.000
10.35222 2166.000
10.37197 2150.000
10.39172 2208.000
10.41147 2102.000
10.43122 2009.000
10.45097 2076.000
10.47072 2080.000
10.49047 2087.000
10.51022 2063.000
10.52997 2029.000
10.54972 2126.000
10.56947 2143.000
10.58922 2063.000
10.60897 2050.000
10.62872 2111.000
10.64847 1984.000
10.66822 2039.000
10.68797 2086.000
10.70772 2097.000
10.72747 2046.000
10.74722 1959.000
10.76697 2032.000
10.78672 2038.000
10.80647 1991.000
10.82622 2032.000
10.84597 2098.000
10.86572 2026.000
10.88547 2000.000
10.90522 1976.000
10.92497 1995.000
10.94472 1989.000
10.96447 2048.000
10.98422 2028.000
11.00397 2094.000
11.02372 2024.000
11.04347 2055.000
11.06322 2062.000
11.08297 2114.000
11.10272 2179.000
11.12247 2168.000
11.14222 2142.000
11.16197 2263.000
11.18172 2278.000
11.20147 2360.000
11.22122 2385.000
11.24097 2579.000
11.26072 2674.000
11.28047 2787.000
11.30022 2845.000
11.31997 2858.000
11.33972 2687.000
11.35947 2656.000
11.37922 2577.000
11.39897 2250.000
11.41872 2274.000
11.43847 2245.000
11.45822 2110.000
11.47797 2090.000
11.49772 2018.000
11.51747 1960.000
11.53722 2041.000
11.55697 2008.000
11.57672 2050.000
11.59647 2051.000
11.61622 2033.000
11.63597 2070.000
11.65572 2003.000
11.67547 2039.000
11.69522 1951.000
11.71497 1992.000
11.73472 2045.000
11.75447 2002.000
11.77422 2069.000
11.79397 2010.000
11.81372 2053.000
11.83347 2021.000
11.85322 1969.000
11.87297 1997.000
11.89272 2019.000
11.91247 2007.000
11.93221 1985.000
11.95196 1964.000
11.97171 2077.000
11.99146 2032.000
12.01121 2026.000
12.03096 2121.000
12.05071 2016.000
12.07046 2110.000
12.09021 2088.000
12.10996 2077.000
12.12971 1959.000
12.14946 2048.000
12.16921 2082.000
12.18896 1988.000
12.20871 2093.000
12.22846 2008.000
12.24821 1968.000
12.26796 1997.000
12.28771 2007.000
12.30746 2027.000
12.32721 2028.000
12.34696 2005.000
12.36671 2045.000
12.38646 2025.000
12.40621 2021.000
12.42596 2037.000
12.44571 2004.000
12.46546 1945.000
12.48521 2031.000
12.50496 2020.000
12.52471 2012.000
12.54446 1992.000
12.56421 2022.000
12.58396 1930.000
12.60371 2021.000
12.62346 1943.000
12.64321 2059.000
12.66296 1978.000
12.68271 2002.000
12.70246 2042.000
12.72221 2027.000
12.74196 1946.000
12.76171 1966.000
12.78146 2027.000
12.80121 2080.000
12.82096 2023.000
12.84071 2024.000
12.86046 2020.000
12.88021 1975.000
12.89996 1979.000
12.91971 2058.000
12.93946 1931.000
12.95921 1990.000
12.97896 2030.000
12.99871 1967.000
13.01846 1933.000
13.03821 2018.000
13.05796 1956.000
13.07771 1945.000
13.09746 2069.000
13.11721 2094.000
13.13696 2073.000
13.15671 1940.000
13.17646 1987.000
13.19621 1991.000
13.21596 1941.000
13.23571 1984.000
13.25546 1972.000
13.27521 1943.000
13.29496 1973.000
13.31471 1911.000
13.33446 1899.000
13.35421 1986.000
13.37396 1936.000
13.39371 1955.000
13.41346 1929.000
13.43321 1947.000
13.45296 1985.000
13.47271 1967.000
13.49246 1884.000
13.51221 1959.000
13.53196 1943.000
13.55171 1947.000
13.57146 1928.000
13.59121 1989.000
13.61096 1921.000
13.63071 1935.000
13.65046 1916.000
13.67021 1938.000
13.68996 1914.000
13.70971 1981.000
13.72946 1919.000
13.74921 1967.000
13.76896 1955.000
13.78871 1960.000
13.80846 1912.000
13.82821 1888.000
13.84796 1973.000
13.86771 2043.000
13.88746 1986.000
13.90720 1866.000
13.92695 1954.000
13.94670 1933.000
13.96645 2033.000
13.98620 1988.000
14.00595 1994.000
14.02570 1993.000
14.04545 1987.000
14.06520 2039.000
14.08495 1981.000
14.10470 1989.000
14.12445 1976.000
14.14420 1971.000
14.16395 2000.000
14.18370 1967.000
14.20345 1945.000
14.22320 1923.000
14.24295 1899.000
14.26270 1933.000
14.28245 1920.000
14.30220 1915.000
14.32195 1965.000
14.34170 1931.000
14.36145 1955.000
14.38120 1896.000
14.40095 1896.000
14.42070 1952.000
14.44045 1923.000
14.46020 1928.000
14.47995 1922.000
14.49970 1928.000
14.51945 1914.000
14.53920 2005.000
14.55895 1956.000
14.57870 1962.000
14.59845 1994.000
14.61820 1995.000
14.63795 1938.000
14.65770 1961.000
14.67745 1922.000
14.69720 1906.000
14.71695 1877.000
14.73670 1940.000
14.75645 1886.000
14.77620 1950.000
14.79595 1926.000
14.81570 1921.000
14.83545 1879.000
14.85520 1912.000
14.87495 1969.000
14.89470 1874.000
14.91445 1981.000
14.93420 1949.000
14.95395 1904.000
14.97370 1860.000
14.99345 1873.000
15.01320 1947.000
15.03295 1922.000
15.05270 1937.000
15.07245 1913.000
15.09220 1878.000
15.11195 1940.000
15.13170 2003.000
15.15145 1912.000
15.17120 1992.000
15.19095 1907.000
15.21070 1907.000
15.23045 1997.000
15.25020 1964.000
15.26995 2010.000
15.28970 2008.000
15.30945 1980.000
15.32920 2011.000
15.34895 2036.000
15.36870 1967.000
15.38845 2026.000
15.40820 1940.000
15.42795 1930.000
15.44770 1963.000
15.46745 1866.000
15.48720 1953.000
15.50695 1937.000
15.52670 1947.000
15.54645 1911.000
15.56620 1947.000
15.58595 1893.000
15.60570 1874.000
15.62545 1976.000
15.64520 1888.000
15.66495 1870.000
15.68470 1951.000
15.70445 1882.000
15.72420 1961.000
15.74395 1927.000
15.76370 1877.000
15.78345 1885.000
15.80320 1977.000
15.82295 1952.000
15.84270 1922.000
15.86245 1950.000
15.88219 1989.000
15.90194 2008.000
15.92169 1946.000
15.94144 1974.000
15.96119 1933.000
15.98094 1911.000
16.00069 1883.000
16.02044 1937.000
16.04019 1882.000
16.05994 1955.000
16.07969 1996.000
16.09944 1919.000
16.11919 1906.000
16.13894 1903.000
16.15869 1937.000
16.17844 1934.000
16.19819 1964.000
16.21794 1988.000
16.23769 1931.000
16.25744 1946.000
16.27719 1901.000
16.29694 1907.000
16.31669 1877.000
16.33644 1910.000
16.35619 2022.000
16.37594 1945.000
16.39569 1933.000
16.41544 1930.000
16.43519 1922.000
16.45494 2012.000
16.47469 2001.000
16.49444 1958.000
16.51419 1897.000
16.53394 2053.000
16.55369 1976.000
16.57344 2022.000
16.59319 2010.000
16.61294 1957.000
16.63269 1942.000
16.65244 2016.000
16.67219 2070.000
16.69194 2121.000
16.71169 2096.000
16.73144 2098.000
16.75119 2196.000
16.77094 2092.000
16.79069 2121.000
16.81044 1996.000
16.83019 1985.000
16.84994 1977.000
16.86969 2005.000
16.88944 1998.000
16.90919 1924.000
16.92894 1975.000
16.94869 1920.000
16.96844 1945.000
16.98819 1921.000
17.00794 2005.000
17.02769 1969.000
17.04744 1962.000
17.06719 1864.000
17.08694 1929.000
17.10669 1947.000
17.12644 1853.000
17.14619 1980.000
17.16594 1916.000
17.18569 1896.000
17.20544 1970.000
17.22519 1972.000
17.24494 1883.000
17.26469 1946.000
17.28444 1910.000
17.30419 1974.000
17.32394 1966.000
17.34369 1948.000
17.36344 1964.000
17.38319 1998.000
17.40294 1928.000
17.42269 1972.000
17.44244 1912.000
17.46219 1923.000
17.48194 1883.000
17.50169 1925.000
17.52144 1883.000
17.54119 2035.000
17.56094 1896.000
17.58069 1917.000
17.60044 1903.000
17.62019 1833.000
17.63994 1913.000
17.65969 1879.000
17.67944 1922.000
17.69919 1929.000
17.71894 1929.000
17.73869 1849.000
17.75844 1868.000
17.77819 1858.000
17.79794 1935.000
17.81769 1918.000
17.83744 1887.000
17.85718 1869.000
17.87693 1907.000
17.89668 1864.000
17.91643 1919.000
17.93618 1823.000
17.95593 1867.000
17.97568 2035.000
17.99543 1998.000
18.01518 2074.000
18.03493 1991.000
18.05468 1936.000
18.07443 1936.000
18.09418 1979.000
18.11393 1934.000
18.13368 1986.000
18.15343 1936.000
18.17318 1911.000
18.19293 1938.000
18.21268 1971.000
18.23243 1909.000
18.25218 1888.000
18.27193 1951.000
18.29168 1865.000
18.31143 1887.000
18.33118 1894.000
18.35093 1897.000
18.37068 1940.000
18.39043 1906.000
18.41018 2002.000
18.42993 1918.000
18.44968 1866.000
18.46943 1925.000
18.48918 1957.000
18.50893 1897.000
18.52868 1944.000
18.54843 1841.000
18.56818 1889.000
18.58793 2004.000
18.60768 2024.000
18.62743 1946.000
18.64718 1910.000
18.66693 2022.000
18.68668 1991.000
18.70643 1951.000
18.72618 1992.000
18.74593 2076.000
18.76568 2034.000
18.78543 2093.000
18.80518 2159.000
18.82493 2216.000
18.84468 2292.000
18.86443 2317.000
18.88418 2371.000
18.90393 2291.000
18.92368 2228.000
18.94343 2103.000
18.96318 2213.000
18.98293 2128.000
19.00268 2047.000
19.02243 2165.000
19.04218 2087.000
19.06193 2073.000
19.08168 1968.000
19.10143 1969.000
19.12118 2012.000
19.14093 1979.000
19.16068 2018.000
19.18043 1886.000
19.20018 1998.000
19.21993 2112.000
19.23968 1964.000
19.25943 2002.000
19.27918 2017.000
19.29893 1991.000
19.31868 1998.000
19.33843 2007.000
19.35818 2017.000
19.37793 2011.000
19.39768 2003.000
19.41743 2011.000
19.43718 2058.000
19.45693 1972.000
19.47668 2020.000
19.49643 2067.000
19.51618 2009.000
19.53593 2062.000
19.55568 1933.000
19.57543 2098.000
19.59518 2107.000
19.61493 2071.000
19.63468 2020.000
19.65443 2001.000
19.67418 2042.000
19.69393 1991.000
19.71368 2024.000
19.73343 1991.000
19.75318 1975.000
19.77293 2052.000
19.79268 2138.000
19.81243 2044.000
19.83217 2009.000
19.85192 1975.000
19.87167 1981.000
19.89142 1983.000
19.91117 1971.000
19.93092 2032.000
19.95067 2083.000
19.97042 2080.000
19.99017 2047.000
20.00992 2094.000
20.02967 2062.000
20.04942 2056.000
20.06917 2067.000
20.08892 2040.000
20.10867 2044.000
20.12842 2233.000
20.14817 2236.000
20.16792 2282.000
20.18767 2343.000
20.20742 2279.000
20.22717 2317.000
20.24692 2188.000
20.26667 2218.000
20.28642 2249.000
20.30617 2054.000
20.32592 2101.000
20.34567 2075.000
20.36542 2029.000
20.38517 2092.000
20.40492 2159.000
20.42467 2069.000
20.44442 1980.000
20.46417 2004.000
20.48392 2021.000
20.50367 2017.000
20.52342 2052.000
20.54317 2111.000
20.56292 2108.000
20.58267 2012.000
20.60242 2081.000
20.62217 2150.000
20.64192 2160.000
20.66167 2155.000
20.68142 2141.000
20.70117 2158.000
20.72092 2174.000
20.74067 2143.000
20.76042 2172.000
20.78017 2098.000
20.79992 2089.000
20.81967 2004.000
20.83942 2102.000
20.85917 2044.000
20.87892 2100.000
20.89867 2152.000
20.91842 2024.000
20.93817 2030.000
20.95792 2070.000
20.97767 2186.000
20.99742 2186.000
21.01717 2169.000
21.03692 2126.000
21.05667 2276.000
21.07642 2282.000
21.09617 2399.000
21.11592 2572.000
21.13567 2520.000
21.15542 2466.000
21.17517 2449.000
21.19492 2362.000
21.21467 2367.000
21.23442 2283.000
21.25417 2233.000
21.27392 2203.000
21.29367 2190.000
21.31342 2105.000
21.33317 2041.000
21.35292 2077.000
21.37267 2101.000
21.39242 2115.000
21.41217 2075.000
21.43192 2125.000
21.45167 1981.000
21.47142 2088.000
21.49117 2079.000
21.51092 2082.000
21.53067 2098.000
21.55042 2119.000
21.57017 2142.000
21.58992 2102.000
21.60967 2162.000
21.62942 2173.000
21.64917 2128.000
21.66892 2166.000
21.68867 2086.000
21.70842 2070.000
21.72817 2169.000
21.74792 2088.000
21.76767 2038.000
21.78742 2045.000
21.80716 2105.000
21.82691 2094.000
21.84666 2193.000
21.86641 2069.000
21.88616 1998.000
21.90591 2176.000
21.92566 2120.000
21.94541 2174.000
21.96516 2272.000
21.98491 2162.000
22.00466 2188.000
22.02441 2111.000
22.04416 2108.000
22.06391 2097.000
22.08366 2200.000
22.10341 2164.000
22.12316 2104.000
22.14291 2131.000
22.16266 2103.000
22.18241 2096.000
22.20216 2005.000
22.22191 2123.000
22.24166 2083.000
22.26141 2098.000
22.28116 2078.000
22.30091 2070.000
22.32066 2151.000
22.34041 2198.000
22.36016 2152.000
22.37991 2221.000
22.39966 2170.000
22.41941 2176.000
22.43916 2151.000
22.45891 2173.000
22.47866 2203.000
22.49841 2160.000
22.51816 2260.000
22.53791 2216.000
22.55766 2220.000
22.57741 2344.000
22.59716 2419.000
22.61691 2288.000
22.63666 2340.000
22.65641 2202.000
22.67616 2316.000
22.69591 2153.000
22.71566 2188.000
22.73541 2231.000
22.75516 2174.000
22.77491 2261.000
22.79466 2174.000
22.81441 2162.000
22.83416 2220.000
22.85391 2206.000
22.87366 2212.000
22.89341 2166.000
22.91316 2198.000
22.93291 2191.000
22.95266 2310.000
22.97241 2259.000
22.99216 2310.000
23.01191 2360.000
23.03166 2349.000
23.05141 2245.000
23.07116 2297.000
23.09091 2205.000
23.11066 2217.000
23.13041 2190.000
23.15016 2204.000
23.16991 2220.000
23.18966 2251.000
23.20941 2167.000
23.22916 2089.000
23.24891 2201.000
23.26866 2163.000
23.28841 2133.000
23.30816 2259.000
23.32791 2177.000
23.34766 2168.000
23.36741 2145.000
23.38716 2263.000
23.40691 2106.000
23.42666 2193.000
23.44641 2209.000
23.46616 2175.000
23.48591 2161.000
23.50566 2122.000
23.52541 2164.000
23.54516 2186.000
23.56491 2211.000
23.58466 2226.000
23.60441 2316.000
23.62416 2361.000
23.64391 2327.000
23.66366 2301.000
23.68341 2324.000
23.70316 2488.000
23.72291 2533.000
23.74266 2514.000
23.76241 2511.000
23.78215 2410.000
23.80190 2474.000
23.82165 2381.000
23.84140 2343.000
23.86115 2353.000
23.88090 2317.000
23.90065 2379.000
23.92040 2288.000
23.94015 2240.000
23.95990 2258.000
23.97965 2254.000
23.99940 2151.000
24.01915 2103.000
24.03890 2232.000
24.05865 2163.000
24.07840 2253.000
24.09815 2163.000
24.11790 2172.000
24.13765 2265.000
24.15740 2151.000
24.17715 2080.000
24.19690 2108.000
24.21665 2101.000
24.23640 2096.000
24.25615 2174.000
24.27590 2232.000
24.29565 2126.000
24.31540 2169.000
24.33515 2194.000
24.35490 2227.000
24.37465 2194.000
24.39440 2164.000
24.41415 2199.000
24.43390 2128.000
24.45365 2234.000
24.47340 2139.000
24.49315 2142.000
24.51290 2090.000
24.53265 2191.000
24.55240 2196.000
24.57215 2212.000
24.59190 2082.000
24.61165 2150.000
24.63140 2238.000
24.65115 2200.000
24.67090 2074.000
24.69065 2235.000
24.71040 2169.000
24.73015 2266.000
24.74990 2186.000
24.76965 2244.000
24.78940 2272.000
24.80915 2208.000
24.82890 2263.000
24.84865 2135.000
24.86840 2313.000
24.88815 2292.000
24.90790 2327.000
24.92765 2399.000
24.94740 2404.000
24.96715 2392.000
24.98690 2516.000
25.00665 2731.000
25.02640 2860.000
25.04615 3053.000
25.06590 3179.000
25.08565 3256.000
25.10540 3299.000
25.12515 3564.000
25.14490 3546.000
25.16465 3293.000
25.18440 3218.000
25.20415 3183.000
25.22390 2851.000
25.24365 2658.000
25.26340 2592.000
25.28315 2503.000
25.30290 2416.000
25.32265 2462.000
25.34240 2435.000
25.36215 2272.000
25.38190 2268.000
25.40165 2329.000
25.42140 2255.000
25.44115 2250.000
25.46090 2265.000
25.48065 2169.000
25.50040 2266.000
25.52015 2266.000
25.53990 2283.000
25.55965 2310.000
25.57940 2404.000
25.59915 2491.000
25.61890 2445.000
25.63865 2543.000
25.65840 2617.000
25.67815 2619.000
25.69790 2792.000
25.71765 2777.000
25.73740 2883.000
25.75714 2843.000
25.77689 2850.000
25.79664 2814.000
25.81639 2815.000
25.83614 2734.000
25.85589 2588.000
25.87564 2605.000
25.89539 2435.000
25.91514 2355.000
25.93489 2408.000
25.95464 2324.000
25.97439 2275.000
25.99414 2165.000
26.01389 2212.000
26.03364 2282.000
26.05339 2198.000
26.07314 2170.000
26.09289 2188.000
26.11264 2050.000
26.13239 2194.000
26.15214 2188.000
26.17189 2140.000
26.19164 2172.000
26.21139 2217.000
26.23114 2184.000
26.25089 2113.000
26.27064 2215.000
26.29039 2040.000
26.31014 2136.000
26.32989 2111.000
26.34964 2080.000
26.36939 2052.000
26.38914 2123.000
26.40889 2112.000
26.42864 2109.000
26.44839 2120.000
26.46814 2110.000
26.48789 2093.000
26.50764 2079.000
26.52739 2015.000
26.54714 2122.000
26.56689 2169.000
26.58664 1996.000
26.60639 2144.000
26.62614 2111.000
26.64589 2088.000
26.66564 2164.000
26.68539 2110.000
26.70514 2018.000
26.72489 2134.000
26.74464 2103.000
26.76439 2116.000
26.78414 2170.000
26.80389 2087.000
26.82364 2124.000
26.84339 2102.000
26.86314 2093.000
26.88289 2088.000
26.90264 2150.000
26.92239 2116.000
26.94214 2141.000
26.96189 2163.000
26.98164 2108.000
27.00139 2144.000
27.02114 2118.000
27.04089 2089.000
27.06064 2147.000
27.08039 2119.000
27.10014 2118.000
27.11989 2094.000
27.13964 2151.000
27.15939 2139.000
27.17914 2172.000
27.19889 2112.000
27.21864 2173.000
27.23839 2212.000
27.25814 2215.000
27.27789 2193.000
27.29764 2175.000
27.31739 2115.000
27.33714 2208.000
27.35689 2176.000
27.37664 2131.000
27.39639 2153.000
27.41614 2198.000
27.43589 2104.000
27.45564 2157.000
27.47539 2263.000
27.49514 2317.000
27.51489 2390.000
27.53464 2349.000
27.55439 2418.000
27.57414 2568.000
27.59389 2536.000
27.61364 2753.000
27.63339 2789.000
27.65314 2980.000
27.67289 3122.000
27.69264 3317.000
27.71239 3861.000
27.73213 4452.000
27.75188 4932.000
27.77163 5824.000
27.79138 6854.000
27.81113 7843.000
27.83088 8731.000
27.85063 9258.000
27.87038 9185.000
27.89013 9152.000
27.90988 8352.000
27.92963 7373.000
27.94938 6375.000
27.96913 5357.000
27.98888 4657.000
28.00863 4098.000
28.02838 3596.000
28.04813 3287.000
28.06788 3026.000
28.08763 2741.000
28.10738 2668.000
28.12713 2626.000
28.14688 2634.000
28.16663 2483.000
28.18638 2419.000
28.20613 2392.000
28.22588 2403.000
28.24563 2414.000
28.26538 2354.000
28.28513 2458.000
28.30488 2501.000
28.32463 2535.000
28.34438 2615.000
28.36413 2680.000
28.38388 2748.000
28.40363 2946.000
28.42338 2956.000
28.44313 3290.000
28.46288 3610.000
28.48263 4044.000
28.50238 4669.000
28.52213 5521.000
28.54188 6618.000
28.56163 7854.000
28.58138 9175.000
28.60113 10480.000
28.62088 11493.000
28.64063 12286.000
28.66038 12191.000
28.68013 11711.000
28.69988 10768.000
28.71963 9802.000
28.73938 8617.000
28.75913 7298.000
28.77888 6313.000
28.79863 5489.000
28.81838 4838.000
28.83813 4404.000
28.85788 4340.000
28.87763 4078.000
28.89738 3870.000
28.91713 3661.000
28.93688 3430.000
28.95663 3231.000
28.97638 3102.000
28.99613 2793.000
29.01588 2661.000
29.03563 2490.000
29.05538 2422.000
29.07513 2489.000
29.09488 2410.000
29.11463 2403.000
29.13438 2412.000
29.15413 2464.000
29.17388 2506.000
29.19363 2612.000
29.21338 2711.000
29.23313 2950.000
29.25288 3081.000
29.27263 3201.000
29.29238 3206.000
29.31213 3034.000
29.33188 3111.000
29.35163 2791.000
29.37138 2669.000
29.39113 2500.000
29.41088 2473.000
29.43063 2393.000
29.45038 2393.000
29.47013 2437.000
29.48988 2484.000
29.50963 2505.000
29.52938 2585.000
29.54913 2610.000
29.56888 2574.000
29.58863 2567.000
29.60838 2393.000
29.62813 2346.000
29.64788 2391.000
29.66763 2267.000
29.68738 2256.000
29.70712 2208.000
29.72687 2199.000
29.74662 2108.000
29.76637 2129.000
29.78612 2104.000
29.80587 2115.000
29.82562 2034.000
29.84537 2059.000
29.86512 2096.000
29.88487 2111.000
29.90462 2007.000
29.92437 2021.000
29.94412 2063.000
29.96387 2087.000
29.98362 2114.000
30.00337 2026.000
30.02312 2016.000
30.04287 2106.000
30.06262 2013.000
30.08237 2027.000
30.10212 2005.000
30.12187 2078.000
30.14162 2031.000
30.16137 1906.000
30.18112 2072.000
30.20087 2103.000
30.22062 2089.000
30.24037 2127.000
30.26012 2206.000
30.27987 2130.000
30.29962 2192.000
30.31937 2161.000
30.33912 2197.000
30.35887 2136.000
30.37862 2130.000
30.39837 2214.000
30.41812 2075.000
30.43787 2130.000
30.45762 2184.000
30.47737 2162.000
30.49712 2155.000
30.51687 2171.000
30.53662 2052.000
30.55637 2071.000
30.57612 2096.000
30.59587 2103.000
30.61562 2132.000
30.63537 2200.000
30.65512 2271.000
30.67487 2387.000
30.69462 2587.000
30.71437 2670.000
30.73412 2846.000
30.75387 2919.000
30.77362 2936.000
30.79337 2901.000
30.81312 3011.000
30.83287 2857.000
30.85262 2701.000
30.87237 2585.000
30.89212 2505.000
30.91187 2367.000
30.93162 2307.000
30.95137 2214.000
30.97112 2134.000
30.99087 2111.000
31.01062 2032.000
31.03037 2062.000
31.05012 2017.000
31.06987 2028.000
31.08962 1978.000
31.10937 2049.000
31.12912 1973.000
31.14887 1990.000
31.16862 1920.000
31.18837 1992.000
31.20812 2035.000
31.22787 2077.000
31.24762 2097.000
31.26737 2216.000
31.28712 2118.000
31.30687 2262.000
31.32662 2331.000
31.34637 2392.000
31.36612 2464.000
31.38587 2451.000
31.40562 2463.000
31.42537 2454.000
31.44512 2333.000
31.46487 2220.000
31.48462 2299.000
31.50437 2210.000
31.52412 2144.000
31.54387 2158.000
31.56362 2165.000
31.58337 2153.000
31.60312 2143.000
31.62287 2172.000
31.64262 2281.000
31.66237 2308.000
31.68211 2435.000
31.70186 2624.000
31.72161 2710.000
31.74136 2793.000
31.76111 2811.000
31.78086 2784.000
31.80061 2863.000
31.82036 2852.000
31.84011 2789.000
31.85986 2750.000
31.87961 2699.000
31.89936 2789.000
31.91911 2727.000
31.93886 2717.000
31.95861 2589.000
31.97836 2559.000
31.99811 2534.000
32.01786 2368.000
32.03761 2365.000
32.05736 2219.000
32.07711 2179.000
32.09686 2060.000
32.11661 1949.000
32.13636 1920.000
32.15611 2032.000
32.17586 1991.000
32.19561 2006.000
32.21536 1995.000
32.23511 1867.000
32.25486 2009.000
32.27461 2017.000
32.29436 2013.000
32.31411 2052.000
32.33386 2098.000
32.35361 2169.000
32.37336 2271.000
32.39311 2359.000
32.41286 2481.000
32.43261 2407.000
32.45236 2556.000
32.47211 2537.000
32.49186 2628.000
32.51161 2627.000
32.53136 2682.000
32.55111 2753.000
32.57086 2767.000
32.59061 2664.000
32.61036 2571.000
32.63011 2514.000
32.64986 2529.000
32.66961 2378.000
32.68936 2264.000
32.70911 2200.000
32.72886 2187.000
32.74861 2083.000
32.76836 2075.000
32.78811 2040.000
32.80786 1967.000
32.82761 1952.000
32.84736 1832.000
32.86711 1842.000
32.88686 1840.000
32.90661 1895.000
32.92636 1873.000
32.94611 1803.000
32.96586 1953.000
32.98561 1850.000
33.00536 1833.000
33.02511 1941.000
33.04486 1972.000
33.06461 1998.000
33.08436 2001.000
33.10411 2098.000
33.12386 2142.000
33.14361 2155.000
33.16336 2292.000
33.18311 2423.000
33.20286 2513.000
33.22261 2771.000
33.24236 3061.000
33.26211 3276.000
33.28186 3667.000
33.30161 4141.000
33.32136 4543.000
33.34111 5043.000
33.36086 5323.000
33.38061 5376.000
33.40036 5379.000
33.42011 5075.000
33.43986 4769.000
33.45961 4377.000
33.47936 4002.000
33.49911 3510.000
33.51886 3297.000
33.53861 3061.000
33.55836 2894.000
33.57811 2800.000
33.59786 2875.000
33.61761 2820.000
33.63736 2863.000
33.65710 3102.000
33.67685 3232.000
33.69660 3310.000
33.71635 3467.000
33.73610 3545.000
33.75585 3580.000
33.77560 3369.000
33.79535 3398.000
33.81510 3279.000
33.83485 3187.000
33.85460 3195.000
33.87435 3047.000
33.89410 2997.000
33.91385 3030.000
33.93360 2940.000
33.95335 3102.000
33.97310 3105.000
33.99285 3214.000
34.01260 3268.000
34.03235 3367.000
34.05210 3572.000
34.07185 3694.000
34.09160 3950.000
34.11135 3881.000
34.13110 3751.000
34.15085 3754.000
34.17060 3650.000
34.19035 3449.000
34.21010 3306.000
34.22985 3167.000
34.24960 2983.000
34.26935 2950.000
34.28910 2553.000
34.30885 2399.000
34.32860 2319.000
34.34835 2265.000
34.36810 2177.000
34.38785 2030.000
34.40760 2121.000
34.42735 2062.000
34.44710 1988.000
34.46685 1947.000
34.48660 1930.000
34.50635 2009.000
34.52610 1945.000
34.54585 1950.000
34.56560 2008.000
34.58535 1939.000
34.60510 2032.000
34.62485 2004.000
34.64460 1967.000
34.66435 2012.000
34.68410 2113.000
34.70385 2176.000
34.72360 2198.000
34.74335 2331.000
34.76310 2456.000
34.78285 2611.000
34.80260 2568.000
34.82235 2692.000
34.84210 2730.000
34.86185 2799.000
34.88160 2748.000
34.90135 2675.000
34.92110 2710.000
34.94085 2663.000
34.96060 2663.000
34.98035 2673.000
35.00010 2751.000
35.01985 2771.000
35.03960 2899.000
35.05935 2796.000
35.07910 2719.000
35.09885 2737.000
35.11860 2502.000
35.13835 2426.000
35.15810 2348.000
35.17785 2237.000
35.19760 2156.000
35.21735 2090.000
35.23710 1949.000
35.25685 1962.000
35.27660 2008.000
35.29635 1849.000
35.31610 1824.000
35.33585 1846.000
35.35560 1797.000
35.37535 1841.000
35.39510 1728.000
35.41485 1765.000
35.43460 1802.000
35.45435 1807.000
35.47410 1822.000
35.49385 1830.000
35.51360 1722.000
35.53335 1830.000
35.55310 1874.000
35.57285 1873.000
35.59260 1946.000
35.61235 1958.000
35.63209 2019.000
35.65184 1950.000
35.67159 1872.000
35.69134 1909.000
35.71109 1867.000
35.73084 1877.000
35.75059 1809.000
35.77034 1824.000
35.79009 1733.000
35.80984 1748.000
35.82959 1733.000
35.84934 1693.000
35.86909 1758.000
35.88884 1778.000
35.90859 1787.000
35.92834 1741.000
35.94809 1790.000
35.96784 1841.000
35.98759 1857.000
36.00734 1869.000
36.02709 1894.000
36.04684 1947.000
36.06659 1958.000
36.08634 1908.000
36.10609 1904.000
36.12584 1870.000
36.14559 1919.000
36.16534 1833.000
36.18509 1830.000
36.20484 1781.000
36.22459 1780.000
36.24434 1756.000
36.26409 1717.000
36.28384 1762.000
36.30359 1718.000
36.32334 1698.000
36.34309 1722.000
36.36284 1770.000
36.38259 1807.000
36.40234 1821.000
36.42209 1867.000
36.44184 2004.000
36.46159 2080.000
36.48134 2083.000
36.50109 2117.000
36.52084 2068.000
36.54059 2101.000
36.56034 2094.000
36.58009 1937.000
36.59984 1998.000
36.61959 1883.000
36.63934 1764.000
36.65909 1828.000
36.67884 1817.000
36.69859 1855.000
36.71834 1739.000
36.73809 1757.000
36.75784 1767.000
36.77759 1690.000
36.79734 1737.000
36.81709 1643.000
36.83684 1628.000
36.85659 1696.000
36.87634 1688.000
36.89609 1635.000
36.91584 1544.000
36.93559 1638.000
36.95534 1581.000
36.97509 1649.000
36.99484 1605.000
37.01459 1615.000
37.03434 1591.000
37.05409 1644.000
37.07384 1638.000
37.09359 1618.000
37.11334 1613.000
37.13309 1639.000
37.15284 1663.000
37.17259 1689.000
37.19234 1680.000
37.21209 1651.000
37.23184 1633.000
37.25159 1600.000
37.27134 1648.000
37.29109 1661.000
37.31084 1641.000
37.33059 1577.000
37.35034 1615.000
37.37009 1630.000
37.38984 1680.000
37.40959 1656.000
37.42934 1618.000
37.44909 1626.000
37.46884 1651.000
37.48859 1712.000
37.50834 1731.000
37.52809 1748.000
37.54784 1734.000
37.56759 1784.000
37.58734 1831.000
37.60708 1837.000
37.62683 1903.000
37.64658 1937.000
37.66633 1979.000
37.68608 1937.000
37.70583 1849.000
37.72558 1920.000
37.74533 1898.000
37.76508 1874.000
37.78483 1883.000
37.80458 1834.000
37.82433 1900.000
37.84408 1854.000
37.86383 1873.000
37.88358 1837.000
37.90333 1818.000
37.92308 1815.000
37.94283 1790.000
37.96258 1710.000
37.98233 1727.000
38.00208 1697.000
38.02183 1653.000
38.04158 1674.000
38.06133 1665.000
38.08108 1713.000
38.10083 1792.000
38.12058 1761.000
38.14033 1832.000
38.16008 1808.000
38.17983 1980.000
38.19958 1881.000
38.21933 1797.000
38.23908 1810.000
38.25883 1826.000
38.27858 1806.000
38.29833 1732.000
38.31808 1632.000
38.33783 1519.000
38.35758 1542.000
38.37733 1504.000
38.39708 1562.000
38.41683 1532.000
38.43658 1515.000
38.45633 1467.000
38.47608 1482.000
38.49583 1599.000
38.51558 1510.000
38.53533 1506.000
38.55508 1464.000
38.57483 1513.000
38.59458 1512.000
38.61433 1624.000
38.63408 1665.000
38.65383 1577.000
38.67358 1598.000
38.69333 1637.000
38.71308 1704.000
38.73283 1664.000
38.75258 1674.000
38.77233 1612.000
38.79208 1593.000
38.81183 1586.000
38.83158 1572.000
38.85133 1617.000
38.87108 1519.000
38.89083 1551.000
38.91058 1531.000
38.93033 1566.000
38.95008 1535.000
38.96983 1541.000
38.98958 1541.000
39.00933 1503.000
39.02908 1587.000
39.04883 1572.000
39.06858 1561.000
39.08833 1559.000
39.10808 1644.000
39.12783 1659.000
39.14758 1709.000
39.16733 1714.000
39.18708 1736.000
39.20683 1721.000
39.22658 1854.000
39.24633 1835.000
39.26608 1771.000
39.28583 1816.000
39.30558 1741.000
39.32533 1714.000
39.34508 1695.000
39.36483 1676.000
39.38458 1646.000
39.40433 1646.000
39.42408 1593.000
39.44383 1646.000
39.46358 1590.000
39.48333 1616.000
39.50308 1559.000
39.52283 1583.000
39.54258 1590.000
39.56233 1656.000
39.58207 1581.000
39.60182 1630.000
39.62157 1591.000
39.64132 1563.000
39.66107 1646.000
39.68082 1665.000
39.70057 1723.000
39.72032 1616.000
39.74007 1696.000
39.75982 1775.000
39.77957 1756.000
39.79932 1702.000
39.81907 1764.000
39.83882 1817.000
39.85857 1902.000
39.87832 1911.000
39.89807 2068.000
39.91782 2272.000
39.93757 2356.000
39.95732 2608.000
39.97707 2769.000
39.99682 2878.000
40.01657 3055.000
40.03632 3008.000
40.05607 3020.000
40.07582 2915.000
40.09557 2923.000
40.11532 2824.000
40.13507 2736.000
40.15482 2695.000
40.17457 2611.000
40.19432 2508.000
40.21407 2523.000
40.23382 2389.000
40.25357 2367.000
40.27332 2359.000
40.29307 2384.000
40.31282 2407.000
40.33257 2296.000
40.35232 2412.000
40.37207 2454.000
40.39182 2652.000
40.41157 2943.000
40.43132 3237.000
40.45107 3612.000
40.47082 3965.000
40.49057 4451.000
40.51032 4958.000
40.53007 5505.000
40.54982 5836.000
40.56957 6603.000
40.58932 7196.000
40.60907 8002.000
40.62882 8675.000
40.64857 9382.000
40.66832 9392.000
40.68807 9279.000
40.70782 8777.000
40.72757 8395.000
40.74732 7518.000
40.76707 7187.000
40.78682 6282.000
40.80657 5715.000
40.82632 4929.000
40.84607 4349.000
40.86582 3879.000
40.88557 3493.000
40.90532 2982.000
40.92507 2754.000
40.94482 2502.000
40.96457 2338.000
40.98432 2143.000
41.00407 2045.000
41.02382 1887.000
41.04357 1886.000
41.06332 1872.000
41.08307 1813.000
41.10282 1701.000
41.12257 1843.000
41.14232 1872.000
41.16207 1874.000
41.18182 1944.000
41.20157 1965.000
41.22132 2090.000
41.24107 2263.000
41.26082 2202.000
41.28057 2243.000
41.30032 2249.000
41.32007 2245.000
41.33982 2139.000
41.35957 2176.000
41.37932 2069.000
41.39907 2064.000
41.41882 2048.000
41.43857 1976.000
41.45832 2007.000
41.47807 1956.000
41.49782 1876.000
41.51757 1830.000
41.53732 1845.000
41.55706 1785.000
41.57681 1754.000
41.59656 1740.000
41.61631 1689.000
41.63606 1619.000
41.65581 1591.000
41.67556 1583.000
41.69531 1595.000
41.71506 1592.000
41.73481 1583.000
41.75456 1633.000
41.77431 1625.000
41.79406 1707.000
41.81381 1774.000
41.83356 1845.000
41.85331 1772.000
41.87306 1849.000
41.89281 1875.000
41.91256 1973.000
41.93231 1908.000
41.95206 1859.000
41.97181 1882.000
41.99156 1825.000
42.01131 1824.000
42.03106 1761.000
42.05081 1766.000
42.07056 1653.000
42.09031 1624.000
42.11006 1693.000
42.12981 1608.000
42.14956 1598.000
42.16931 1572.000
42.18906 1499.000
42.20881 1512.000
42.22856 1545.000
42.24831 1579.000
42.26806 1627.000
42.28781 1552.000
42.30756 1607.000
42.32731 1657.000
42.34706 1724.000
42.36681 1761.000
42.38656 1830.000
42.40631 1815.000
42.42606 1975.000
42.44581 2037.000
42.46556 2072.000
42.48531 2068.000
42.50506 2048.000
42.52481 2016.000
42.54456 2041.000
42.56431 1970.000
42.58406 1913.000
42.60381 1863.000
42.62356 1899.000
42.64331 1756.000
42.66306 1768.000
42.68281 1753.000
42.70256 1811.000
42.72231 1807.000
42.74206 1765.000
42.76181 1888.000
42.78156 1863.000
42.80131 1942.000
42.82106 2024.000
42.84081 1965.000
42.86056 1940.000
42.88031 1989.000
42.90006 1958.000
42.91981 1980.000
42.93956 1860.000
42.95931 1808.000
42.97906 1795.000
42.99881 1776.000
43.01856 1765.000
43.03831 1680.000
43.05806 1677.000
43.07781 1594.000
43.09756 1523.000
43.11731 1463.000
43.13706 1498.000
43.15681 1544.000
43.17656 1391.000
43.19631 1473.000
43.21606 1439.000
43.23581 1411.000
43.25556 1452.000
43.27531 1459.000
43.29506 1504.000
43.31481 1555.000
43.33456 1452.000
43.35431 1460.000
43.37406 1481.000
43.39381 1437.000
43.41356 1430.000
43.43331 1424.000
43.45306 1515.000
43.47281 1473.000
43.49256 1543.000
43.51231 1573.000
43.53205 1520.000
43.55180 1538.000
43.57155 1519.000
43.59130 1566.000
43.61105 1577.000
43.63080 1567.000
43.65055 1516.000
43.67030 1567.000
43.69005 1637.000
43.70980 1581.000
43.72955 1540.000
43.74930 1613.000
43.76905 1637.000
43.78880 1727.000
43.80855 1733.000
43.82830 1733.000
43.84805 1774.000
43.86780 1814.000
43.88755 1707.000
43.90730 1789.000
43.92705 1700.000
43.94680 1701.000
43.96655 1657.000
43.98630 1696.000
44.00605 1693.000
44.02580 1691.000
44.04555 1777.000
44.06530 1550.000
44.08505 1640.000
44.10480 1576.000
44.12455 1627.000
44.14430 1540.000
44.16405 1611.000
44.18380 1535.000
44.20355 1548.000
44.22330 1502.000
44.24305 1564.000
44.26280 1520.000
44.28255 1519.000
44.30230 1522.000
44.32205 1651.000
44.34180 1664.000
44.36155 1681.000
44.38130 1745.000
44.40105 1814.000
44.42080 1937.000
44.44055 1971.000
44.46030 2060.000
44.48005 2178.000
44.49980 2260.000
44.51955 2356.000
44.53930 2217.000
44.55905 2277.000
44.57880 2158.000
44.59855 2093.000
44.61830 2064.000
44.63805 1867.000
44.65780 1864.000
44.67755 1840.000
44.69730 1635.000
44.71705 1624.000
44.73680 1580.000
44.75655 1518.000
44.77630 1471.000
44.79605 1393.000
44.81580 1454.000
44.83555 1407.000
44.85530 1452.000
44.87505 1411.000
44.89480 1377.000
44.91455 1368.000
44.93430 1422.000
44.95405 1386.000
44.97380 1395.000
44.99355 1459.000
45.01330 1441.000
45.03305 1399.000
45.05280 1357.000
45.07255 1365.000
45.09230 1416.000
45.11205 1315.000
45.13180 1394.000
45.15155 1358.000
45.17130 1416.000
45.19105 1450.000
45.21080 1408.000
45.23055 1424.000
45.25030 1424.000
45.27005 1462.000
45.28980 1421.000
45.30955 1405.000
45.32930 1453.000
45.34905 1457.000
45.36880 1416.000
45.38855 1443.000
45.40830 1409.000
45.42805 1430.000
45.44780 1387.000
45.46755 1324.000
45.48730 1436.000
45.50704 1386.000
45.52679 1383.000
45.54654 1440.000
45.56629 1397.000
45.58604 1426.000
45.60579 1409.000
45.62554 1422.000
45.64529 1418.000
45.66504 1424.000
45.68479 1378.000
45.70454 1419.000
45.72429 1419.000
45.74404 1396.000
45.76379 1427.000
45.78354 1417.000
45.80329 1490.000
45.82304 1515.000
45.84279 1443.000
45.86254 1526.000
45.88229 1526.000
45.90204 1573.000
45.92179 1583.000
45.94154 1611.000
45.96129 1651.000
45.98104 1600.000
46.00079 1631.000
46.02054 1541.000
46.04029 1680.000
46.06004 1653.000
46.07979 1580.000
46.09954 1658.000
46.11929 1671.000
46.13904 1687.000
46.15879 1751.000
46.17854 1802.000
46.19829 1831.000
46.21804 1948.000
46.23779 2005.000
46.25754 2113.000
46.27729 2386.000
46.29704 2594.000
46.31679 2849.000
46.33654 3029.000
46.35629 3182.000
46.37604 3220.000
46.39579 3281.000
46.41554 3299.000
46.43529 3163.000
46.45504 3032.000
46.47479 3006.000
46.49454 2818.000
46.51429 2577.000
46.53404 2509.000
46.55379 2402.000
46.57354 2159.000
46.59329 2114.000
46.61304 2114.000
46.63279 2127.000
46.65254 2159.000
46.67229 2091.000
46.69204 2220.000
46.71179 2299.000
46.73154 2499.000
46.75129 2674.000
46.77104 2757.000
46.79079 3049.000
46.81054 3090.000
46.83029 3177.000
46.85004 3213.000
46.86979 3216.000
46.88954 3232.000
46.90929 3206.000
46.92904 3115.000
46.94879 3040.000
46.96854 3042.000
46.98829 2909.000
47.00804 2928.000
47.02779 2953.000
47.04754 3033.000
47.06729 3111.000
47.08704 3213.000
47.10679 3233.000
47.12654 3389.000
47.14629 3527.000
47.16604 3501.000
47.18579 3438.000
47.20554 3375.000
47.22529 3299.000
47.24504 3343.000
47.26479 3144.000
47.28454 3084.000
47.30429 2970.000
47.32404 2805.000
47.34379 2553.000
47.36354 2400.000
47.38329 2332.000
47.40304 2167.000
47.42279 2013.000
47.44254 1926.000
47.46229 1819.000
47.48203 1661.000
47.50178 1600.000
47.52153 1610.000
47.54128 1625.000
47.56103 1557.000
47.58078 1482.000
47.60053 1547.000
47.62028 1533.000
47.64003 1488.000
47.65978 1464.000
47.67953 1400.000
47.69928 1499.000
47.71903 1494.000
47.73878 1417.000
47.75853 1423.000
47.77828 1384.000
47.79803 1427.000
47.81778 1444.000
47.83753 1422.000
47.85728 1423.000
47.87703 1491.000
47.89678 1567.000
47.91653 1463.000
47.93628 1489.000
47.95603 1517.000
47.97578 1575.000
47.99553 1564.000
48.01528 1642.000
48.03503 1638.000
48.05478 1659.000
48.07453 1542.000
48.09428 1538.000
48.11403 1570.000
48.13378 1566.000
48.15353 1529.000
48.17328 1578.000
48.19303 1574.000
48.21278 1535.000
48.23253 1596.000
48.25228 1542.000
48.27203 1530.000
48.29178 1617.000
48.31153 1661.000
48.33128 1640.000
48.35103 1692.000
48.37078 1714.000
48.39053 1757.000
48.41028 1871.000
48.43003 1969.000
48.44978 2061.000
48.46953 2074.000
48.48928 2176.000
48.50903 2330.000
48.52878 2589.000
48.54853 2664.000
48.56828 2851.000
48.58803 3178.000
48.60778 3482.000
48.62753 3701.000
48.64728 3802.000
48.66703 3786.000
48.68678 3816.000
48.70653 3851.000
48.72628 4074.000
48.74603 3979.000
48.76578 3835.000
48.78553 3818.000
48.80528 3828.000
48.82503 3734.000
48.84478 3502.000
48.86453 3322.000
48.88428 3143.000
48.90403 3014.000
48.92378 2869.000
48.94353 2683.000
48.96328 2484.000
48.98303 2316.000
49.00278 2171.000
49.02253 2125.000
49.04228 1962.000
49.06203 1908.000
49.08178 1892.000
49.10153 1746.000
49.12128 1633.000
49.14103 1565.000
49.16078 1657.000
49.18053 1573.000
49.20028 1656.000
49.22003 1622.000
49.23978 1577.000
49.25953 1593.000
49.27928 1578.000
49.29903 1516.000
49.31878 1565.000
49.33853 1560.000
49.35828 1536.000
49.37803 1611.000
49.39778 1497.000
49.41753 1506.000
49.43728 1520.000
49.45702 1610.000
49.47677 1496.000
49.49652 1522.000
49.51627 1507.000
49.53602 1548.000
49.55577 1565.000
49.57552 1499.000
49.59527 1540.000
49.61502 1601.000
49.63477 1519.000
49.65452 1538.000
49.67427 1490.000
49.69402 1506.000
49.71377 1469.000
49.73352 1520.000
49.75327 1497.000
49.77302 1533.000
49.79277 1507.000
49.81252 1522.000
49.83227 1508.000
49.85202 1504.000
49.87177 1448.000
49.89152 1559.000
49.91127 1514.000
49.93102 1518.000
49.95077 1568.000
49.97052 1535.000
49.99027 1456.000
50.01002 1512.000
50.02977 1492.000
50.04952 1601.000
50.06927 1510.000
50.08902 1559.000
50.10877 1543.000
50.12852 1517.000
50.14827 1563.000
50.16802 1421.000
50.18777 1514.000
50.20752 1512.000
50.22727 1537.000
50.24702 1478.000
50.26677 1623.000
50.28652 1544.000
50.30627 1561.000
50.32602 1541.000
50.34577 1631.000
50.36552 1674.000
50.38527 1674.000
50.40502 1606.000
50.42477 1566.000
50.44452 1580.000
50.46427 1516.000
50.48402 1556.000
50.50377 1605.000
50.52352 1539.000
50.54327 1489.000
50.56302 1571.000
50.58277 1480.000
50.60252 1486.000
50.62227 1487.000
50.64202 1519.000
50.66177 1596.000
50.68152 1498.000
50.70127 1473.000
50.72102 1500.000
50.74077 1501.000
50.76052 1467.000
50.78027 1457.000
50.80002 1477.000
50.81977 1490.000
50.83952 1514.000
50.85927 1471.000
50.87902 1402.000
50.89877 1470.000
50.91852 1448.000
50.93827 1444.000
50.95802 1545.000
50.97777 1426.000
50.99752 1448.000
51.01727 1473.000
51.03702 1379.000
51.05677 1423.000
51.07652 1478.000
51.09627 1434.000
51.11602 1467.000
51.13577 1406.000
51.15552 1461.000
51.17527 1453.000
51.19502 1496.000
51.21477 1431.000
51.23452 1445.000
51.25427 1452.000
51.27402 1434.000
51.29377 1449.000
51.31352 1480.000
51.33327 1456.000
51.35302 1443.000
51.37277 1521.000
51.39252 1507.000
51.41227 1466.000
51.43201 1565.000
51.45176 1538.000
51.47151 1547.000
51.49126 1542.000
51.51101 1529.000
51.53076 1508.000
51.55051 1525.000
51.57026 1540.000
51.59001 1453.000
51.60976 1563.000
51.62951 1490.000
51.64926 1489.000
51.66901 1454.000
51.68876 1445.000
51.70851 1450.000
51.72826 1530.000
51.74801 1394.000
51.76776 1461.000
51.78751 1387.000
51.80726 1411.000
51.82701 1378.000
51.84676 1428.000
51.86651 1450.000
51.88626 1389.000
51.90601 1445.000
51.92576 1394.000
51.94551 1368.000
51.96526 1397.000
51.98501 1424.000
52.00476 1425.000
52.02451 1371.000
52.04426 1444.000
52.06401 1419.000
52.08376 1361.000
52.10351 1496.000
52.12326 1408.000
52.14301 1363.000
52.16276 1417.000
52.18251 1407.000
52.20226 1407.000
52.22201 1478.000
52.24176 1449.000
52.26151 1450.000
52.28126 1434.000
52.30101 1409.000
52.32076 1411.000
52.34051 1456.000
52.36026 1474.000
52.38001 1498.000
52.39976 1467.000
52.41951 1454.000
52.43926 1426.000
52.45901 1476.000
52.47876 1524.000
52.49851 1546.000
52.51826 1522.000
52.53801 1602.000
52.55776 1540.000
52.57751 1571.000
52.59726 1669.000
52.61701 1638.000
52.63676 1610.000
52.65651 1608.000
52.67626 1737.000
52.69601 1657.000
52.71576 1634.000
52.73551 1656.000
52.75526 1656.000
52.77501 1752.000
52.79476 1745.000
52.81451 1726.000
52.83426 1781.000
52.85401 1814.000
52.87376 1806.000
52.89351 1734.000
52.91326 1753.000
52.93301 1801.000
52.95276 1689.000
52.97251 1678.000
52.99226 1686.000
53.01201 1791.000
53.03176 1756.000
53.05151 1740.000
53.07126 1722.000
53.09101 1726.000
53.11076 1592.000
53.13051 1674.000
53.15026 1635.000
53.17001 1620.000
53.18976 1611.000
53.20951 1588.000
53.22926 1572.000
53.24901 1621.000
53.26876 1575.000
53.28851 1509.000
53.30826 1526.000
53.32801 1601.000
53.34776 1606.000
53.36751 1569.000
53.38726 1530.000
53.40700 1541.000
53.42675 1496.000
53.44650 1591.000
53.46625 1552.000
53.48600 1589.000
53.50575 1630.000
53.52550 1679.000
53.54525 1751.000
53.56500 1744.000
53.58475 1737.000
53.60450 1772.000
53.62425 1762.000
53.64400 1718.000
53.66375 1695.000
53.68350 1651.000
53.70325 1648.000
53.72300 1561.000
53.74275 1674.000
53.76250 1650.000
53.78225 1606.000
53.80200 1622.000
53.82175 1573.000
53.84150 1552.000
53.86125 1651.000
53.88100 1568.000
53.90075 1591.000
53.92050 1666.000
53.94025 1677.000
53.96000 1772.000
53.97975 1756.000
53.99950 1815.000
54.01925 1793.000
54.03900 1887.000
54.05875 1937.000
54.07850 1900.000
54.09825 1931.000
54.11800 1869.000
54.13775 1826.000
54.15750 1859.000
54.17725 1826.000
54.19700 1859.000
54.21675 1855.000
54.23650 1755.000
54.25625 1686.000
54.27600 1709.000
54.29575 1675.000
54.31550 1738.000
54.33525 1693.000
54.35500 1735.000
54.37475 1844.000
54.39450 1844.000
54.41425 1894.000
54.43400 1946.000
54.45375 2151.000
54.47350 2167.000
54.49325 2302.000
54.51300 2443.000
54.53275 2555.000
54.55250 2649.000
54.57225 2538.000
54.59200 2410.000
54.61175 2402.000
54.63150 2384.000
54.65125 2259.000
54.67100 2141.000
54.69075 2210.000
54.71050 2118.000
54.73025 2084.000
54.75000 1961.000
54.76975 1921.000
54.78950 1750.000
54.80925 1729.000
54.82900 1729.000
54.84875 1676.000
54.86850 1619.000
54.88825 1569.000
54.90800 1585.000
54.92775 1568.000
54.94750 1583.000
54.96725 1585.000
54.98700 1621.000
55.00675 1550.000
55.02650 1599.000
55.04625 1607.000
55.06600 1611.000
55.08575 1673.000
55.10550 1571.000
55.12525 1618.000
55.14500 1654.000
55.16475 1737.000
55.18450 1690.000
55.20425 1738.000
55.22400 1644.000
55.24375 1752.000
55.26350 1712.000
55.28325 1750.000
55.30300 1732.000
55.32275 1646.000
55.34250 1747.000
55.36225 1660.000
55.38199 1715.000
55.40174 1717.000
55.42149 1650.000
55.44124 1803.000
55.46099 1735.000
55.48074 1738.000
55.50049 1743.000
55.52024 1754.000
55.53999 1836.000
55.55974 1939.000
55.57949 1921.000
55.59924 2014.000
55.61899 2096.000
55.63874 2230.000
55.65849 2240.000
55.67824 2338.000
55.69799 2372.000
55.71774 2346.000
55.73749 2420.000
55.75724 2418.000
55.77699 2464.000
55.79674 2335.000
55.81649 2300.000
55.83624 2166.000
55.85599 2097.000
55.87574 2025.000
55.89549 2048.000
55.91524 1876.000
55.93499 1861.000
55.95474 1781.000
55.97449 1794.000
55.99424 1758.000
56.01399 1564.000
56.03374 1645.000
56.05349 1601.000
56.07324 1545.000
56.09299 1556.000
56.11274 1578.000
56.13249 1515.000
56.15224 1435.000
56.17199 1464.000
56.19174 1566.000
56.21149 1593.000
56.23124 1633.000
56.25099 1741.000
56.27074 1626.000
56.29049 1695.000
56.31024 1700.000
56.32999 1747.000
56.34974 1897.000
56.36949 1953.000
56.38924 2038.000
56.40899 2236.000
56.42874 2348.000
56.44849 2466.000
56.46824 2667.000
56.48799 2780.000
56.50774 2854.000
56.52749 2964.000
56.54724 3148.000
56.56699 3157.000
56.58674 3260.000
56.60649 3427.000
56.62624 3437.000
56.64599 3475.000
56.66574 3189.000
56.68549 3195.000
56.70524 2984.000
56.72499 2866.000
56.74474 2792.000
56.76449 2711.000
56.78424 2638.000
56.80399 2593.000
56.82374 2516.000
56.84349 2401.000
56.86324 2283.000
56.88299 2288.000
56.90274 2177.000
56.92249 2227.000
56.94224 2345.000
56.96199 2383.000
56.98174 2455.000
57.00149 2538.000
57.02124 2563.000
57.04099 2586.000
57.06074 2582.000
57.08049 2636.000
57.10024 2608.000
57.11999 2465.000
57.13974 2463.000
57.15949 2439.000
57.17924 2355.000
57.19899 2339.000
57.21874 2270.000
57.23849 2201.000
57.25824 2100.000
57.27799 1978.000
57.29774 1881.000
57.31749 1807.000
57.33724 1731.000
57.35698 1761.000
57.37673 1706.000
57.39648 1742.000
57.41623 1657.000
57.43598 1666.000
57.45573 1627.000
57.47548 1746.000
57.49523 1779.000
57.51498 1715.000
57.53473 1883.000
57.55448 1883.000
57.57423 1911.000
57.59398 1981.000
57.61373 2051.000
57.63348 2011.000
57.65323 2090.000
57.67298 2074.000
57.69273 2144.000
57.71248 2113.000
57.73223 2017.000
57.75198 1998.000
57.77173 1945.000
57.79148 1888.000
57.81123 1831.000
57.83098 1853.000
57.85073 1834.000
57.87048 1717.000
57.89023 1645.000
57.90998 1656.000
57.92973 1608.000
57.94948 1579.000
57.96923 1499.000
57.98898 1544.000
58.00873 1443.000
58.02848 1475.000
58.04823 1445.000
58.06798 1418.000
58.08773 1480.000
58.10748 1446.000
58.12723 1420.000
58.14698 1485.000
58.16673 1406.000
58.18648 1411.000
58.20623 1442.000
58.22598 1480.000
58.24573 1398.000
58.26548 1436.000
58.28523 1439.000
58.30498 1459.000
58.32473 1461.000
58.34448 1531.000
58.36423 1531.000
58.38398 1446.000
58.40373 1502.000
58.42348 1578.000
58.44323 1534.000
58.46298 1527.000
58.48273 1515.000
58.50248 1506.000
58.52223 1568.000
58.54198 1509.000
58.56173 1552.000
58.58148 1603.000
58.60123 1718.000
58.62098 1640.000
58.64073 1717.000
58.66048 1813.000
58.68023 1832.000
58.69998 1982.000
58.71973 2020.000
58.73948 2154.000
58.75923 2249.000
58.77898 2261.000
58.79873 2279.000
58.81848 2206.000
58.83823 2294.000
58.85798 2176.000
58.87773 2170.000
58.89748 2175.000
58.91723 2162.000
58.93698 2133.000
58.95673 2119.000
58.97648 2125.000
58.99623 1864.000
59.01598 1838.000
59.03573 1834.000
59.05548 1794.000
59.07523 1705.000
59.09498 1747.000
59.11473 1657.000
59.13448 1628.000
59.15423 1611.000
59.17398 1582.000
59.19373 1570.000
59.21348 1574.000
59.23323 1559.000
59.25298 1515.000
59.27273 1515.000
59.29248 1508.000
59.31223 1546.000
59.33197 1546.000
59.35172 1543.000
59.37147 1519.000
59.39122 1481.000
59.41097 1506.000
59.43072 1487.000
59.45047 1480.000
59.47022 1377.000
59.48997 1434.000
59.50972 1379.000
59.52947 1410.000
59.54922 1402.000
59.56897 1424.000
59.58872 1408.000
59.60847 1365.000
59.62822 1411.000
59.64797 1386.000
59.66772 1458.000
59.68747 1397.000
59.70722 1423.000
59.72697 1382.000
59.74672 1378.000
59.76647 1401.000
59.78622 1388.000
59.80597 1378.000
59.82572 1380.000
59.84547 1352.000
59.86522 1309.000
59.88497 1430.000
59.90472 1414.000
59.92447 1312.000
59.94422 1325.000
59.96397 1273.000
59.98372 1346.000
60.00347 1305.000
60.02322 1276.000
60.04297 1271.000
60.06272 1339.000
60.08247 1325.000
60.10222 1361.000
60.12197 1334.000
60.14172 1306.000
60.16147 1358.000
60.18122 1360.000
60.20097 1368.000
60.22072 1332.000
60.24047 1374.000
60.26022 1352.000
60.27997 1345.000
60.29972 1459.000
60.31947 1367.000
60.33922 1393.000
60.35897 1373.000
60.37872 1392.000
60.39847 1386.000
60.41822 1404.000
60.43797 1387.000
60.45772 1387.000
60.47747 1398.000
60.49722 1411.000
60.51697 1358.000
60.53672 1358.000
60.55647 1365.000
60.57622 1404.000
60.59597 1440.000
60.61572 1442.000
60.63547 1417.000
60.65522 1484.000
60.67497 1413.000
60.69472 1430.000
60.71447 1427.000
60.73422 1525.000
60.75397 1530.000
60.77372 1476.000
60.79347 1590.000
60.81322 1676.000
60.83297 1732.000
60.85272 1739.000
60.87247 1863.000
60.89222 1864.000
60.91197 1838.000
60.93172 1979.000
60.95147 1989.000
60.97122 1921.000
60.99097 1880.000
61.01072 2062.000
61.03047 1882.000
61.05022 1868.000
61.06997 1875.000
61.08972 1799.000
61.10947 1786.000
61.12922 1833.000
61.14897 1762.000
61.16872 1692.000
61.18847 1721.000
61.20822 1720.000
61.22797 1690.000
61.24772 1667.000
61.26747 1756.000
61.28722 1671.000
61.30696 1680.000
61.32671 1721.000
61.34646 1723.000
61.36621 1865.000
61.38596 1811.000
61.40571 1813.000
61.42546 1808.000
61.44521 1923.000
61.46496 1883.000
61.48471 1827.000
61.50446 1838.000
61.52421 1958.000
61.54396 1853.000
61.56371 1944.000
61.58346 1888.000
61.60321 1816.000
61.62296 1821.000
61.64271 1791.000
61.66246 1829.000
61.68221 1758.000
61.70196 1795.000
61.72171 1797.000
61.74146 1733.000
61.76121 1723.000
61.78096 1657.000
61.80071 1623.000
61.82046 1637.000
61.84021 1612.000
61.85996 1571.000
61.87971 1579.000
61.89946 1599.000
61.91921 1609.000
61.93896 1659.000
61.95871 1594.000
61.97846 1694.000
61.99821 1629.000
62.01796 1587.000
62.03771 1587.000
62.05746 1554.000
62.07721 1545.000
62.09696 1475.000
62.11671 1497.000
62.13646 1534.000
62.15621 1563.000
62.17596 1557.000
62.19571 1482.000
62.21546 1484.000
62.23521 1484.000
62.25496 1478.000
62.27471 1427.000
62.29446 1403.000
62.31421 1348.000
62.33396 1348.000
62.35371 1418.000
62.37346 1354.000
62.39321 1352.000
62.41296 1288.000
62.43271 1296.000
62.45246 1324.000
62.47221 1348.000
62.49196 1313.000
62.51171 1347.000
62.53146 1343.000
62.55121 1296.000
62.57096 1331.000
62.59071 1300.000
62.61046 1427.000
62.63021 1426.000
62.64996 1299.000
62.66971 1377.000
62.68946 1343.000
62.70921 1418.000
62.72896 1429.000
62.74871 1485.000
62.76846 1527.000
62.78821 1554.000
62.80796 1645.000
62.82771 1744.000
62.84746 1731.000
62.86721 1729.000
62.88696 1869.000
62.90671 1824.000
62.92646 1813.000
62.94621 1876.000
62.96596 1944.000
62.98571 1878.000
63.00546 1888.000
63.02521 1867.000
63.04496 1894.000
63.06471 1893.000
63.08446 1856.000
63.10421 1734.000
63.12396 1741.000
63.14371 1831.000
63.16346 1747.000
63.18321 1640.000
63.20296 1471.000
63.22271 1588.000
63.24246 1583.000
63.26221 1524.000
63.28195 1492.000
63.30170 1408.000
63.32145 1413.000
63.34120 1346.000
63.36095 1395.000
63.38070 1367.000
63.40045 1336.000
63.42020 1328.000
63.43995 1366.000
63.45970 1346.000
63.47945 1351.000
63.49920 1418.000
63.51895 1389.000
63.53870 1420.000
63.55845 1445.000
63.57820 1377.000
63.59795 1381.000
63.61770 1364.000
63.63745 1371.000
63.65720 1375.000
63.67695 1385.000
63.69670 1412.000
63.71645 1327.000
63.73620 1312.000
63.75595 1387.000
63.77570 1347.000
63.79545 1327.000
63.81520 1278.000
63.83495 1301.000
63.85470 1278.000
63.87445 1291.000
63.89420 1297.000
63.91395 1305.000
63.93370 1291.000
63.95345 1227.000
63.97320 1236.000
63.99295 1201.000
64.01270 1262.000
64.03245 1208.000
64.05220 1227.000
64.07195 1282.000
64.09170 1252.000
64.11145 1241.000
64.13120 1264.000
64.15095 1217.000
64.17070 1251.000
64.19045 1249.000
64.21020 1302.000
64.22995 1255.000
64.24970 1248.000
64.26945 1241.000
64.28920 1267.000
64.30895 1237.000
64.32870 1241.000
64.34845 1300.000
64.36820 1304.000
64.38795 1314.000
64.40770 1267.000
64.42745 1270.000
64.44720 1275.000
64.46695 1316.000
64.48670 1379.000
64.50645 1327.000
64.52620 1382.000
64.54595 1369.000
64.56570 1371.000
64.58545 1361.000
64.60520 1282.000
64.62495 1353.000
64.64470 1303.000
64.66445 1327.000
64.68420 1347.000
64.70395 1401.000
64.72370 1341.000
64.74345 1337.000
64.76320 1302.000
64.78295 1312.000
64.80270 1340.000
64.82245 1293.000
64.84220 1366.000
64.86195 1448.000
64.88170 1328.000
64.90145 1405.000
64.92120 1315.000
64.94095 1338.000
64.96070 1429.000
64.98045 1367.000
65.00020 1350.000
65.01995 1396.000
65.03970 1393.000
65.05945 1393.000
65.07920 1389.000
65.09895 1434.000
65.11870 1479.000
65.13845 1525.000
65.15820 1481.000
65.17795 1528.000
65.19770 1631.000
65.21745 1729.000
65.23720 1767.000
65.25694 1808.000
65.27669 1872.000
65.29644 1832.000
65.31619 1761.000
65.33594 1726.000
65.35569 1703.000
65.37544 1738.000
65.39519 1592.000
65.41494 1534.000
65.43469 1616.000
65.45444 1523.000
65.47419 1505.000
65.49394 1565.000
65.51369 1464.000
65.53344 1457.000
65.55319 1407.000
65.57294 1370.000
65.59269 1408.000
65.61244 1328.000
65.63219 1357.000
65.65194 1440.000
65.67169 1356.000
65.69144 1364.000
65.71119 1405.000
65.73094 1360.000
65.75069 1335.000
65.77044 1365.000
65.79019 1299.000
65.80994 1398.000
65.82969 1387.000
65.84944 1387.000
65.86919 1375.000
65.88894 1400.000
65.90869 1473.000
65.92844 1419.000
65.94819 1426.000
65.96794 1491.000
65.98769 1521.000
66.00744 1505.000
66.02719 1606.000
66.04694 1644.000
66.06669 1786.000
66.08644 1797.000
66.10619 1735.000
66.12594 1798.000
66.14569 1744.000
66.16544 1722.000
66.18519 1687.000
66.20494 1613.000
66.22469 1608.000
66.24444 1496.000
66.26419 1565.000
66.28394 1625.000
66.30369 1617.000
66.32344 1538.000
66.34319 1496.000
66.36294 1501.000
66.38269 1393.000
66.40244 1422.000
66.42219 1358.000
66.44194 1349.000
66.46169 1345.000
66.48144 1373.000
66.50119 1357.000
66.52094 1296.000
66.54069 1291.000
66.56044 1262.000
66.58019 1252.000
66.59994 1252.000
66.61969 1204.000
66.63944 1278.000
66.65919 1195.000
66.67894 1208.000
66.69869 1174.000
66.71844 1237.000
66.73819 1273.000
66.75794 1159.000
66.77769 1188.000
66.79744 1246.000
66.81719 1250.000
66.83694 1257.000
66.85669 1279.000
66.87644 1245.000
66.89619 1233.000
66.91594 1296.000
66.93569 1236.000
66.95544 1286.000
66.97519 1278.000
66.99494 1269.000
67.01469 1191.000
67.03444 1295.000
67.05419 1345.000
67.07394 1319.000
67.09369 1239.000
67.11344 1275.000
67.13319 1278.000
67.15294 1277.000
67.17269 1251.000
67.19244 1258.000
67.21219 1228.000
67.23193 1274.000
67.25168 1289.000
67.27143 1208.000
67.29118 1291.000
67.31093 1282.000
67.33068 1230.000
67.35043 1224.000
67.37018 1201.000
67.38993 1219.000
67.40968 1240.000
67.42943 1201.000
67.44918 1234.000
67.46893 1238.000
67.48868 1210.000
67.50843 1180.000
67.52818 1164.000
67.54793 1231.000
67.56768 1223.000
67.58743 1210.000
67.60718 1163.000
67.62693 1192.000
67.64668 1236.000
67.66643 1256.000
67.68618 1203.000
67.70593 1134.000
67.72568 1199.000
67.74543 1192.000
67.76518 1219.000
67.78493 1274.000
67.80468 1175.000
67.82443 1256.000
67.84418 1212.000
67.86393 1214.000
67.88368 1244.000
67.90343 1221.000
67.92318 1209.000
67.94293 1198.000
67.96268 1254.000
67.98243 1219.000
68.00218 1248.000
68.02193 1250.000
68.04168 1262.000
68.06143 1217.000
68.08118 1226.000
68.10093 1237.000
68.12068 1303.000
68.14043 1242.000
68.16018 1295.000
68.17993 1234.000
68.19968 1262.000
68.21943 1243.000
68.23918 1206.000
68.25893 1230.000
68.27868 1188.000
68.29843 1249.000
68.31818 1248.000
68.33793 1243.000
68.35768 1273.000
68.37743 1202.000
68.39718 1243.000
68.41693 1252.000
68.43668 1253.000
68.45643 1284.000
68.47618 1291.000
68.49593 1290.000
68.51568 1321.000
68.53543 1414.000
68.55518 1374.000
68.57493 1342.000
68.59468 1297.000
68.61443 1398.000
68.63418 1353.000
68.65393 1301.000
68.67368 1324.000
68.69343 1376.000
68.71318 1303.000
68.73293 1258.000
68.75268 1261.000
68.77243 1326.000
68.79218 1278.000
68.81193 1240.000
68.83168 1251.000
68.85143 1242.000
68.87118 1237.000
68.89093 1286.000
68.91068 1238.000
68.93043 1221.000
68.95018 1212.000
68.96993 1222.000
68.98968 1227.000
69.00943 1176.000
69.02918 1258.000
69.04893 1189.000
69.06868 1307.000
69.08843 1226.000
69.10818 1276.000
69.12793 1243.000
69.14768 1157.000
69.16743 1231.000
69.18718 1244.000
69.20692 1286.000
69.22667 1201.000
69.24642 1225.000
69.26617 1232.000
69.28592 1190.000
69.30567 1226.000
69.32542 1199.000
69.34517 1227.000
69.36492 1264.000
69.38467 1220.000
69.40442 1273.000
69.42417 1275.000
69.44392 1249.000
69.46367 1250.000
69.48342 1257.000
69.50317 1239.000
69.52292 1266.000
69.54267 1234.000
69.56242 1316.000
69.58217 1294.000
69.60192 1255.000
69.62167 1331.000
69.64142 1334.000
69.66117 1306.000
69.68092 1312.000
69.70067 1425.000
69.72042 1493.000
69.74017 1481.000
69.75992 1512.000
69.77967 1564.000
69.79942 1660.000
69.81917 1720.000
69.83892 1681.000
69.85867 1781.000
69.87842 1670.000
69.89817 1683.000
69.91792 1691.000
69.93767 1635.000
69.95742 1688.000
69.97717 1654.000
69.99692 1602.000
70.01667 1630.000
70.03642 1568.000
70.05617 1597.000
70.07592 1507.000
70.09567 1557.000
70.11542 1436.000
70.13517 1433.000
70.15492 1397.000
70.17467 1420.000
70.19442 1373.000
70.21417 1382.000
70.23392 1319.000
70.25367 1297.000
70.27342 1383.000
70.29317 1262.000
70.31292 1247.000
70.33267 1283.000
70.35242 1309.000
70.37217 1246.000
70.39192 1312.000
70.41167 1314.000
70.43142 1354.000
70.45117 1320.000
70.47092 1339.000
70.49067 1397.000
70.51042 1352.000
70.53017 1308.000
70.54992 1318.000
70.56967 1403.000
70.58942 1370.000
70.60917 1338.000
70.62892 1358.000
70.64867 1375.000
70.66842 1401.000
70.68817 1409.000
70.70792 1389.000
70.72767 1279.000
70.74742 1407.000
70.76717 1292.000
70.78692 1362.000
70.80667 1368.000
70.82642 1340.000
70.84617 1319.000
70.86592 1438.000
70.88567 1408.000
70.90542 1337.000
70.92517 1423.000
70.94492 1408.000
70.96467 1445.000
70.98442 1467.000
71.00417 1427.000
71.02392 1411.000
71.04367 1488.000
71.06342 1503.000
71.08317 1482.000
71.10292 1476.000
71.12267 1515.000
71.14242 1554.000
71.16217 1554.000
71.18191 1550.000
71.20166 1539.000
71.22141 1526.000
71.24116 1526.000
71.26091 1532.000
71.28066 1635.000
71.30041 1598.000
71.32016 1638.000
71.33991 1619.000
71.35966 1662.000
71.37941 1629.000
71.39916 1630.000
71.41891 1544.000
71.43866 1536.000
71.45841 1597.000
71.47816 1558.000
71.49791 1601.000
71.51766 1605.000
71.53741 1552.000
71.55716 1511.000
71.57691 1520.000
71.59666 1485.000
71.61641 1465.000
71.63616 1486.000
71.65591 1555.000
71.67566 1422.000
71.69541 1415.000
71.71516 1392.000
71.73491 1425.000
71.75466 1347.000
71.77441 1337.000
71.79416 1369.000
71.81391 1347.000
71.83366 1347.000
71.85341 1317.000
71.87316 1302.000
71.89291 1320.000
71.91266 1251.000
71.93241 1275.000
71.95216 1239.000
71.97191 1239.000
71.99166 1231.000
72.01141 1231.000
72.03116 1221.000
72.05091 1261.000
72.07066 1267.000
72.09041 1305.000
72.11016 1348.000
72.12991 1355.000
72.14966 1307.000
72.16941 1368.000
72.18916 1295.000
72.20891 1386.000
72.22866 1340.000
72.24841 1416.000
72.26816 1416.000
72.28791 1434.000
72.30766 1433.000
72.32741 1505.000
72.34716 1419.000
72.36691 1406.000
72.38666 1416.000
72.40641 1443.000
72.42616 1384.000
72.44591 1414.000
72.46566 1422.000
72.48541 1445.000
72.50516 1327.000
72.52491 1387.000
72.54466 1383.000
72.56441 1333.000
72.58416 1362.000
72.60391 1391.000
72.62366 1324.000
72.64341 1325.000
72.66316 1327.000
72.68291 1290.000
72.70266 1337.000
72.72241 1369.000
72.74216 1338.000
72.76191 1352.000
72.78166 1323.000
72.80141 1340.000
72.82116 1478.000
72.84091 1459.000
72.86066 1399.000
72.88041 1420.000
72.90016 1488.000
72.91991 1477.000
72.93966 1431.000
72.95941 1404.000
72.97916 1412.000
72.99891 1289.000
73.01866 1382.000
73.03841 1418.000
73.05816 1371.000
73.07791 1448.000
73.09766 1381.000
73.11741 1386.000
73.13716 1357.000
73.15690 1296.000
73.17665 1286.000
73.19640 1314.000
73.21615 1353.000
73.23590 1337.000
73.25565 1263.000
73.27540 1337.000
73.29515 1313.000
73.31490 1327.000
73.33465 1365.000
73.35440 1285.000
73.37415 1355.000
73.39390 1383.000
73.41365 1493.000
73.43340 1423.000
73.45315 1343.000
73.47290 1464.000
73.49265 1535.000
73.51240 1524.000
73.53215 1455.000
73.55190 1550.000
73.57165 1580.000
73.59140 1603.000
73.61115 1670.000
73.63090 1626.000
73.65065 1706.000
73.67040 1774.000
73.69015 1727.000
73.70990 1940.000
73.72965 1972.000
73.74940 2172.000
73.76915 2322.000
73.78890 2565.000
73.80865 2674.000
73.82840 2870.000
73.84815 2809.000
73.86790 2867.000
73.88765 2824.000
73.90740 2796.000
73.92715 2698.000
73.94690 2569.000
73.96665 2507.000
73.98640 2439.000
74.00615 2527.000
74.02590 2484.000
74.04565 2554.000
74.06540 2523.000
74.08515 2401.000
74.10490 2306.000
74.12465 2301.000
74.14440 2116.000
74.16415 2057.000
74.18390 1913.000
74.20365 1880.000
74.22340 1807.000
74.24315 1788.000
74.26290 1667.000
74.28265 1589.000
74.30240 1513.000
74.32215 1552.000
74.34190 1519.000
74.36165 1482.000
74.38140 1453.000
74.40115 1417.000
74.42090 1434.000
74.44065 1392.000
74.46040 1369.000
74.48015 1427.000
74.49990 1357.000
74.51965 1302.000
74.53940 1369.000
74.55915 1342.000
74.57890 1309.000
74.59865 1290.000
74.61840 1420.000
74.63815 1329.000
74.65790 1261.000
74.67765 1323.000
74.69740 1389.000
74.71715 1355.000
74.73690 1361.000
74.75665 1382.000
74.77640 1306.000
74.79615 1378.000
74.81590 1369.000
74.83565 1228.000
74.85540 1312.000
74.87515 1276.000
74.89490 1290.000
74.91465 1435.000
74.93440 1323.000
74.95415 1389.000
74.97390 1320.000
74.99365 1375.000
75.01340 1362.000
75.03315 1421.000
75.05290 1473.000
75.07265 1421.000
75.09240 1415.000
75.11215 1501.000
75.13189 1478.000
75.15164 1561.000
75.17139 1595.000
75.19114 1677.000
75.21089 1676.000
75.23064 1771.000
75.25039 1847.000
75.27014 1811.000
75.28989 1819.000
75.30964 1791.000
75.32939 1836.000
75.34914 1667.000
75.36889 1719.000
75.38864 1662.000
75.40839 1722.000
75.42814 1700.000
75.44789 1653.000
75.46764 1639.000
75.48739 1587.000
75.50714 1592.000
75.52689 1556.000
75.54664 1414.000
75.56639 1393.000
75.58614 1420.000
75.60589 1322.000
75.62564 1317.000
75.64539 1311.000
75.66514 1343.000
75.68489 1283.000
75.70464 1290.000
75.72439 1271.000
75.74414 1295.000
75.76389 1281.000
75.78364 1336.000
75.80339 1220.000
75.82314 1266.000
75.84289 1260.000
75.86264 1283.000
75.88239 1254.000
75.90214 1283.000
75.92189 1253.000
75.94164 1251.000
75.96139 1310.000
75.98114 1304.000
76.00089 1282.000
76.02064 1317.000
76.04039 1342.000
76.06014 1364.000
76.07989 1329.000
76.09964 1368.000
76.11939 1424.000
76.13914 1390.000
76.15889 1446.000
76.17864 1488.000
76.19839 1561.000
76.21814 1534.000
76.23789 1526.000
76.25764 1522.000
76.27739 1502.000
76.29714 1449.000
76.31689 1536.000
76.33664 1521.000
76.35639 1538.000
76.37614 1610.000
76.39589 1645.000
76.41564 1666.000
76.43539 1681.000
76.45514 1619.000
76.47489 1551.000
76.49464 1559.000
76.51439 1537.000
76.53414 1574.000
76.55389 1450.000
76.57364 1431.000
76.59339 1422.000
76.61314 1397.000
76.63289 1392.000
76.65264 1406.000
76.67239 1354.000
76.69214 1375.000
76.71189 1336.000
76.73164 1395.000
76.75139 1387.000
76.77114 1363.000
76.79089 1329.000
76.81064 1301.000
76.83039 1202.000
76.85014 1221.000
76.86989 1261.000
76.88964 1289.000
76.90939 1304.000
76.92914 1182.000
76.94889 1191.000
76.96864 1188.000
76.98839 1250.000
77.00814 1219.000
77.02789 1303.000
77.04764 1247.000
77.06739 1201.000
77.08714 1262.000
77.10688 1246.000
77.12663 1192.000
77.14638 1224.000
77.16613 1250.000
77.18588 1289.000
77.20563 1257.000
77.22538 1274.000
77.24513 1288.000
77.26488 1215.000
77.28463 1192.000
77.30438 1257.000
77.32413 1275.000
77.34388 1306.000
77.36363 1255.000
77.38338 1302.000
77.40313 1271.000
77.42288 1238.000
77.44263 1256.000
77.46238 1280.000
77.48213 1258.000
77.50188 1263.000
77.52163 1252.000
77.54138 1271.000
77.56113 1228.000
77.58088 1253.000
77.60063 1206.000
77.62038 1254.000
77.64013 1259.000
77.65988 1266.000
77.67963 1297.000
77.69938 1237.000
77.71913 1227.000
77.73888 1167.000
77.75863 1258.000
77.77838 1239.000
77.79813 1218.000
77.81788 1213.000
77.83763 1250.000
77.85738 1233.000
77.87713 1221.000
77.89688 1208.000
77.91663 1340.000
77.93638 1244.000
77.95613 1294.000
77.97588 1254.000
77.99563 1231.000
78.01538 1264.000
78.03513 1264.000
78.05488 1320.000
78.07463 1302.000
78.09438 1251.000
78.11413 1183.000
78.13388 1288.000
78.15363 1276.000
78.17338 1232.000
78.19313 1225.000
78.21288 1251.000
78.23263 1253.000
78.25238 1268.000
78.27213 1230.000
78.29188 1270.000
78.31163 1247.000
78.33138 1266.000
78.35113 1270.000
78.37088 1271.000
78.39063 1249.000
78.41038 1294.000
78.43013 1302.000
78.44988 1287.000
78.46963 1240.000
78.48938 1307.000
78.50913 1337.000
78.52888 1329.000
78.54863 1400.000
78.56838 1355.000
78.58813 1383.000
78.60788 1339.000
78.62763 1440.000
78.64738 1438.000
78.66713 1453.000
78.68688 1451.000
78.70663 1497.000
78.72638 1476.000
78.74613 1465.000
78.76588 1483.000
78.78563 1462.000
78.80538 1445.000
78.82513 1417.000
78.84488 1484.000
78.86463 1405.000
78.88438 1424.000
78.90413 1385.000
78.92388 1372.000
78.94363 1342.000
78.96338 1306.000
78.98313 1291.000
79.00288 1315.000
79.02263 1315.000
79.04238 1365.000
79.06213 1310.000
79.08187 1292.000
79.10162 1223.000
79.12137 1285.000
79.14112 1230.000
79.16087 1217.000
79.18062 1194.000
79.20037 1224.000
79.22012 1146.000
79.23987 1184.000
79.25962 1190.000
79.27937 1169.000
79.29912 1142.000
79.31887 1213.000
79.33862 1131.000
79.35837 1119.000
79.37812 1206.000
79.39787 1256.000
79.41762 1266.000
79.43737 1186.000
79.45712 1143.000
79.47687 1217.000
79.49662 1135.000
79.51637 1186.000
79.53612 1159.000
79.55587 1197.000
79.57562 1253.000
79.59537 1171.000
79.61512 1186.000
79.63487 1149.000
79.65462 1191.000
79.67437 1159.000
79.69412 1210.000
79.71387 1172.000
79.73362 1137.000
79.75337 1202.000
79.77312 1174.000
79.79287 1169.000
79.81262 1126.000
79.83237 1131.000
79.85212 1162.000
79.87187 1152.000
79.89162 1159.000
79.91137 1174.000
79.93112 1130.000
79.95087 1209.000
79.97062 1229.000
79.99037 1142.000
80.01012 1161.000
80.02987 1137.000
80.04962 1177.000
80.06937 1191.000
80.08912 1261.000
80.10887 1207.000
80.12862 1208.000
80.14837 1152.000
80.16812 1141.000
80.18787 1156.000
80.20762 1168.000
80.22737 1198.000
80.24712 1173.000
80.26687 1174.000
80.28662 1178.000
80.30637 1113.000
80.32612 1171.000
80.34587 1150.000
80.36562 1177.000
80.38537 1132.000
80.40512 1126.000
80.42487 1220.000
80.44462 1125.000
80.46437 1203.000
80.48412 1177.000
80.50387 1140.000
80.52362 1133.000
80.54337 1140.000
80.56312 1114.000
80.58287 1139.000
80.60262 1160.000
80.62237 1153.000
80.64212 1225.000
80.66187 1221.000
80.68162 1209.000
80.70137 1185.000
80.72112 1147.000
80.74087 1147.000
80.76062 1149.000
80.78037 1166.000
80.80012 1215.000
80.81987 1213.000
80.83962 1242.000
80.85937 1221.000
80.87912 1231.000
80.89887 1265.000
80.91862 1291.000
80.93837 1379.000
80.95812 1281.000
80.97787 1307.000
80.99762 1356.000
81.01737 1362.000
81.03712 1351.000
81.05686 1349.000
81.07661 1415.000
81.09636 1389.000
81.11611 1363.000
81.13586 1329.000
81.15561 1340.000
81.17536 1369.000
81.19511 1321.000
81.21486 1328.000
81.23461 1329.000
81.25436 1393.000
81.27411 1386.000
81.29386 1387.000
81.31361 1389.000
81.33336 1294.000
81.35311 1359.000
81.37286 1331.000
81.39261 1303.000
81.41236 1247.000
81.43211 1288.000
81.45186 1306.000
81.47161 1303.000
81.49136 1239.000
81.51111 1284.000
81.53086 1252.000
81.55061 1186.000
81.57036 1251.000
81.59011 1202.000
81.60986 1142.000
81.62961 1171.000
81.64936 1168.000
81.66911 1248.000
81.68886 1225.000
81.70861 1218.000
81.72836 1144.000
81.74811 1201.000
81.76786 1183.000
81.78761 1124.000
81.80736 1159.000
81.82711 1177.000
81.84686 1153.000
81.86661 1165.000
81.88636 1148.000
81.90611 1151.000
81.92586 1195.000
81.94561 1155.000
81.96536 1165.000
81.98511 1162.000
82.00486 1171.000
82.02461 1181.000
82.04436 1130.000
82.06411 1143.000
82.08386 1165.000
82.10361 1125.000
82.12336 1136.000
82.14311 1139.000
82.16286 1189.000
82.18261 1143.000
82.20236 1163.000
82.22211 1181.000
82.24186 1212.000
82.26161 1110.000
82.28136 1161.000
82.30111 1143.000
82.32086 1176.000
82.34061 1121.000
82.36036 1137.000
82.38011 1266.000
82.39986 1166.000
82.41961 1191.000
82.43936 1168.000
82.45911 1162.000
82.47886 1190.000
82.49861 1179.000
82.51836 1119.000
82.53811 1144.000
82.55786 1138.000
82.57761 1201.000
82.59736 1142.000
82.61711 1256.000
82.63686 1211.000
82.65661 1202.000
82.67636 1258.000
82.69611 1234.000
82.71586 1248.000
82.73561 1182.000
82.75536 1235.000
82.77511 1261.000
82.79486 1242.000
82.81461 1236.000
82.83436 1324.000
82.85411 1328.000
82.87386 1272.000
82.89361 1274.000
82.91336 1247.000
82.93311 1306.000
82.95286 1258.000
82.97261 1295.000
82.99236 1361.000
83.01211 1268.000
83.03185 1296.000
83.05160 1262.000
83.07135 1375.000
83.09110 1290.000
83.11085 1259.000
83.13060 1300.000
83.15035 1423.000
83.17010 1307.000
83.18985 1246.000
83.20960 1347.000
83.22935 1301.000
83.24910 1247.000
83.26885 1281.000
83.28860 1334.000
83.30835 1337.000
83.32810 1381.000
83.34785 1416.000
83.36760 1376.000
83.38735 1409.000
83.40710 1376.000
83.42685 1445.000
83.44660 1456.000
83.46635 1433.000
83.48610 1368.000
83.50585 1368.000
83.52560 1334.000
83.54535 1402.000
83.56510 1382.000
83.58485 1302.000
83.60460 1341.000
83.62435 1431.000
83.64410 1373.000
83.66385 1339.000
83.68360 1376.000
83.70335 1305.000
83.72310 1330.000
83.74285 1285.000
83.76260 1334.000
83.78235 1262.000
83.80210 1312.000
83.82185 1389.000
83.84160 1347.000
83.86135 1379.000
83.88110 1312.000
83.90085 1387.000
83.92060 1417.000
83.94035 1475.000
83.96010 1496.000
83.97985 1504.000
83.99960 1437.000
84.01935 1449.000
84.03910 1470.000
84.05885 1486.000
84.07860 1388.000
84.09835 1464.000
84.11810 1399.000
84.13785 1316.000
84.15760 1297.000
84.17735 1394.000
84.19710 1392.000
84.21685 1353.000
84.23660 1383.000
84.25635 1276.000
84.27610 1271.000
84.29585 1331.000
84.31560 1313.000
84.33535 1245.000
84.35510 1208.000
84.37485 1172.000
84.39460 1148.000
84.41435 1197.000
84.43410 1229.000
84.45385 1172.000
84.47360 1179.000
84.49335 1160.000
84.51310 1161.000
84.53285 1101.000
84.55260 1168.000
84.57235 1149.000
84.59210 1151.000
84.61185 1112.000
84.63160 1129.000
84.65135 1124.000
84.67110 1132.000
84.69085 1075.000
84.71060 1092.000
84.73035 1056.000
84.75010 1170.000
84.76985 1166.000
84.78960 1259.000
84.80935 1071.000
84.82910 1125.000
84.84885 1135.000
84.86860 1106.000
84.88835 1078.000
84.90810 1084.000
84.92785 1185.000
84.94760 1112.000
84.96735 1124.000
84.98710 1130.000
85.00684 1105.000
85.02659 1057.000
85.04634 1179.000
85.06609 1067.000
85.08584 1163.000
85.10559 1150.000
85.12534 1130.000
85.14509 1124.000
85.16484 1135.000
85.18459 1128.000
85.20434 1174.000
85.22409 1181.000
85.24384 1241.000
85.26359 1249.000
85.28334 1333.000
85.30309 1300.000
85.32284 1267.000
85.34259 1352.000
85.36234 1398.000
85.38209 1368.000
85.40184 1419.000
85.42159 1500.000
85.44134 1480.000
85.46109 1470.000
85.48084 1498.000
85.50059 1465.000
85.52034 1503.000
85.54009 1526.000
85.55984 1398.000
85.57959 1409.000
85.59934 1382.000
85.61909 1436.000
85.63884 1379.000
85.65859 1375.000
85.67834 1378.000
85.69809 1367.000
85.71784 1365.000
85.73759 1374.000
85.75734 1403.000
85.77709 1388.000
85.79684 1349.000
85.81659 1352.000
85.83634 1339.000
85.85609 1199.000
85.87584 1255.000
85.89559 1288.000
85.91534 1255.000
85.93509 1225.000
85.95484 1254.000
85.97459 1278.000
85.99434 1262.000
86.01409 1332.000
86.03384 1321.000
86.05359 1232.000
86.07334 1353.000
86.09309 1317.000
86.11284 1361.000
86.13259 1396.000
86.15234 1332.000
86.17209 1342.000
86.19184 1359.000
86.21159 1319.000
86.23134 1263.000
86.25109 1281.000
86.27084 1258.000
86.29059 1320.000
86.31034 1224.000
86.33009 1192.000
86.34984 1321.000
86.36959 1241.000
86.38934 1231.000
86.40909 1288.000
86.42884 1266.000
86.44859 1179.000
86.46834 1173.000
86.48809 1264.000
86.50784 1208.000
86.52759 1215.000
86.54734 1175.000
86.56709 1160.000
86.58684 1201.000
86.60659 1163.000
86.62634 1256.000
86.64609 1184.000
86.66584 1103.000
86.68559 1100.000
86.70534 1149.000
86.72509 1098.000
86.74484 1105.000
86.76459 1105.000
86.78434 1121.000
86.80409 1123.000
86.82384 1142.000
86.84359 1091.000
86.86334 1092.000
86.88309 1119.000
86.90284 1088.000
86.92259 1103.000
86.94234 1062.000
86.96209 1102.000
86.98183 1064.000
87.00158 1090.000
87.02133 1142.000
87.04108 1143.000
87.06083 1088.000
87.08058 1016.000
87.10033 1100.000
87.12008 1101.000
87.13983 1040.000
87.15958 1064.000
87.17933 1147.000
87.19908 1067.000
87.21883 957.000
87.23858 1053.000
87.25833 1125.000
87.27808 1049.000
87.29783 1075.000
87.31758 1091.000
87.33733 1006.000
87.35708 1102.000
87.37683 1075.000
87.39658 1108.000
87.41633 1114.000
87.43608 1094.000
87.45583 1065.000
87.47558 1141.000
87.49533 1163.000
87.51508 1096.000
87.53483 1143.000
87.55458 1057.000
87.57433 1126.000
87.59408 1119.000
87.61383 1171.000
87.63358 1151.000
87.65333 1181.000
87.67308 1218.000
87.69283 1301.000
87.71258 1398.000
87.73233 1406.000
87.75208 1390.000
87.77183 1542.000
87.79158 1508.000
87.81133 1513.000
87.83108 1479.000
87.85083 1505.000
87.87058 1481.000
87.89033 1426.000
87.91008 1458.000
87.92983 1406.000
87.94958 1444.000
87.96933 1422.000
87.98908 1427.000
88.00883 1345.000
88.02858 1426.000
88.04833 1405.000
88.06808 1394.000
88.08783 1469.000
88.10758 1433.000
88.12733 1409.000
88.14708 1387.000
88.16683 1337.000
88.18658 1349.000
88.20633 1385.000
88.22608 1335.000
88.24583 1322.000
88.26558 1375.000
88.28533 1316.000
88.30508 1318.000
88.32483 1387.000
88.34458 1334.000
88.36433 1372.000
88.38408 1305.000
88.40383 1284.000
88.42358 1253.000
88.44333 1295.000
88.46308 1305.000
88.48283 1245.000
88.50258 1291.000
88.52233 1205.000
88.54208 1254.000
88.56183 1233.000
88.58158 1256.000
88.60133 1192.000
88.62108 1209.000
88.64083 1222.000
88.66058 1235.000
88.68033 1159.000
88.70008 1199.000
88.71983 1152.000
88.73958 1203.000
88.75933 1190.000
88.77908 1146.000
88.79883 1122.000
88.81858 1174.000
88.83833 1151.000
88.85808 1124.000
88.87783 1124.000
88.89758 1217.000
88.91733 1182.000
88.93708 1183.000
88.95682 1210.000
88.97657 1217.000
88.99632 1190.000
89.01607 1244.000
89.03582 1259.000
89.05557 1282.000
89.07532 1325.000
89.09507 1333.000
89.11482 1353.000
89.13457 1404.000
89.15432 1437.000
89.17407 1496.000
89.19382 1456.000
89.21357 1514.000
89.23332 1549.000
89.25307 1476.000
89.27282 1591.000
89.29257 1602.000
89.31232 1541.000
89.33207 1523.000
89.35182 1580.000
89.37157 1564.000
89.39132 1606.000
89.41107 1598.000
89.43082 1549.000
89.45057 1577.000
89.47032 1634.000
89.49007 1658.000
89.50982 1729.000
89.52957 1728.000
89.54932 1703.000
89.56907 1681.000
89.58882 1602.000
89.60857 1719.000
89.62832 1639.000
89.64807 1627.000
89.66782 1596.000
89.68757 1574.000
89.70732 1610.000
89.72707 1523.000
89.74682 1517.000
89.76657 1507.000
89.78632 1488.000
89.80607 1471.000
89.82582 1466.000
89.84557 1473.000
89.86532 1424.000
89.88507 1410.000
89.90482 1391.000
89.92457 1304.000
89.94432 1275.000
89.96407 1330.000
89.98382 1313.000
90.00357 1283.000
