14.99674 5974.000
15.01122 5965.000
15.02571 5895.000
15.04019 5920.000
15.05467 5883.000
15.06916 5925.000
15.08364 5900.000
15.09812 5994.000
15.11260 6093.000
15.12709 6052.000
15.14157 5991.000
15.15605 5901.000
15.17054 6030.000
15.18502 5878.000
15.19950 6016.000
15.21399 5866.000
15.22847 6034.000
15.24295 5853.000
15.25744 5944.000
15.27192 5821.000
15.28640 5915.000
15.30089 5966.000
15.31537 6019.000
15.32985 5850.000
15.34434 6006.000
15.35882 5837.000
15.37330 5909.000
15.38779 6007.000
15.40227 5928.000
15.41675 5839.000
15.43124 5832.000
15.44572 5908.000
15.46020 5922.000
15.47469 5888.000
15.48917 5828.000
15.50365 5888.000
15.51814 6050.000
15.53262 5889.000
15.54710 5895.000
15.56159 5968.000
15.57607 5712.000
15.59055 5937.000
15.60504 5900.000
15.61952 5916.000
15.63400 5908.000
15.64849 5891.000
15.66297 5891.000
15.67745 5979.000
15.69194 5989.000
15.70642 5907.000
15.72090 5958.000
15.73539 5702.000
15.74987 5816.000
15.76435 5860.000
15.77884 5840.000
15.79332 5894.000
15.80780 5726.000
15.82229 5839.000
15.83677 5999.000
15.85125 6093.000
15.86574 5759.000
15.88022 5879.000
15.89470 5794.000
15.90919 5850.000
15.92367 5938.000
15.93815 5761.000
15.95264 5911.000
15.96712 5752.000
15.98160 5871.000
15.99609 5901.000
16.01057 5778.000
16.02505 5730.000
16.03954 5836.000
16.05402 5816.000
16.06850 5865.000
16.08299 5702.000
16.09747 5771.000
16.11195 5844.000
16.12644 5830.000
16.14092 5679.000
16.15540 5848.000
16.16989 5769.000
16.18437 5904.000
16.19885 5951.000
16.21334 5875.000
16.22782 5780.000
16.24230 5781.000
16.25679 5806.000
16.27127 5789.000
16.28575 5745.000
16.30024 5830.000
16.31472 5814.000
16.32920 5832.000
16.34369 5846.000
16.35817 5673.000
16.37265 5731.000
16.38714 5739.000
16.40162 5641.000
16.41610 5777.000
16.43059 5750.000
16.44507 5881.000
16.45955 5724.000
16.47404 5664.000
16.48852 5740.000
16.50300 5994.000
16.51749 5905.000
16.53197 5851.000
16.54645 5901.000
16.56093 5719.000
16.57542 5558.000
16.58990 5784.000
16.60438 5829.000
16.61887 5816.000
16.63335 5911.000
16.64783 5904.000
16.66232 5622.000
16.67680 5745.000
16.69128 5745.000
16.70577 5757.000
16.72025 5757.000
16.73473 5853.000
16.74922 5726.000
16.76370 5800.000
16.77818 5696.000
16.79267 5894.000
16.80715 5765.000
16.82163 5985.000
16.83612 5924.000
16.85060 5846.000
16.86508 5838.000
16.87957 5868.000
16.89405 5826.000
16.90853 5791.000
16.92302 5930.000
16.93750 5892.000
16.95198 5816.000
16.96647 5817.000
16.98095 5850.000
16.99543 5852.000
17.00992 5803.000
17.02440 5829.000
17.03888 5775.000
17.05337 5701.000
17.06785 5859.000
17.08233 5995.000
17.09682 5745.000
17.11130 5734.000
17.12578 5829.000
17.14027 5850.000
17.15475 5779.000
17.16923 5818.000
17.18372 5739.000
17.19820 5784.000
17.21268 5683.000
17.22717 5770.000
17.24165 5748.000
17.25613 5846.000
17.27062 5824.000
17.28510 5794.000
17.29958 5773.000
17.31407 5701.000
17.32855 5768.000
17.34303 5727.000
17.35752 5741.000
17.37200 5696.000
17.38648 5674.000
17.40097 5598.000
17.41545 5702.000
17.42993 5658.000
17.44442 5663.000
17.45890 5620.000
17.47338 5855.000
17.48787 5768.000
17.50235 5681.000
17.51683 5666.000
17.53132 5742.000
17.54580 5525.000
17.56028 5808.000
17.57477 5755.000
17.58925 5828.000
17.60373 5602.000
17.61822 5683.000
17.63270 5705.000
17.64718 5612.000
17.66167 5703.000
17.67615 5700.000
17.69063 5749.000
17.70512 5696.000
17.71960 5690.000
17.73408 5788.000
17.74857 5706.000
17.76305 5687.000
17.77753 5661.000
17.79202 5711.000
17.80650 5730.000
17.82098 5676.000
17.83547 5764.000
17.84995 5712.000
17.86443 5613.000
17.87892 5810.000
17.89340 5770.000
17.90788 5652.000
17.92237 5750.000
17.93685 5785.000
17.95133 5744.000
17.96582 5680.000
17.98030 5678.000
17.99478 5645.000
18.00926 5683.000
18.02375 5745.000
18.03823 5731.000
18.05271 5725.000
18.06720 5665.000
18.08168 5751.000
18.09616 5683.000
18.11065 5949.000
18.12513 5734.000
18.13961 5755.000
18.15410 5926.000
18.16858 5942.000
18.18306 6008.000
18.19755 5965.000
18.21203 5943.000
18.22651 6062.000
18.24100 6100.000
18.25548 6219.000
18.26996 6332.000
18.28445 6604.000
18.29893 6488.000
18.31341 6836.000
18.32790 6954.000
18.34238 7371.000
18.35686 7567.000
18.37135 7999.000
18.38583 8022.000
18.40031 8271.000
18.41480 8573.000
18.42928 8944.000
18.44376 9095.000
18.45825 9453.000
18.47273 9628.000
18.48721 9320.000
18.50170 9137.000
18.51618 8743.000
18.53066 8489.000
18.54515 7923.000
18.55963 7586.000
18.57411 7296.000
18.58860 6799.000
18.60308 6554.000
18.61756 6572.000
18.63205 6239.000
18.64653 6167.000
18.66101 6112.000
18.67550 5806.000
18.68998 5955.000
18.70446 5797.000
18.71895 5861.000
18.73343 5873.000
18.74791 5691.000
18.76240 5736.000
18.77688 5696.000
18.79136 5896.000
18.80585 5769.000
18.82033 5590.000
18.83481 5682.000
18.84930 5584.000
18.86378 5722.000
18.87826 5583.000
18.89275 5624.000
18.90723 5691.000
18.92171 5499.000
18.93620 5569.000
18.95068 5696.000
18.96516 5557.000
18.97965 5673.000
18.99413 5570.000
19.00861 5521.000
19.02310 5622.000
19.03758 5676.000
19.05206 5517.000
19.06655 5646.000
19.08103 5548.000
19.09551 5491.000
19.11000 5433.000
19.12448 5539.000
19.13896 5617.000
19.15345 5581.000
19.16793 5499.000
19.18241 5607.000
19.19690 5557.000
19.21138 5401.000
19.22586 5475.000
19.24035 5540.000
19.25483 5520.000
19.26931 5509.000
19.28380 5575.000
19.29828 5508.000
19.31276 5481.000
19.32725 5505.000
19.34173 5665.000
19.35621 5460.000
19.37070 5401.000
19.38518 5518.000
19.39966 5575.000
19.41415 5492.000
19.42863 5506.000
19.44311 5416.000
19.45759 5440.000
19.47208 5476.000
19.48656 5398.000
19.50104 5441.000
19.51553 5474.000
19.53001 5469.000
19.54449 5443.000
19.55898 5494.000
19.57346 5508.000
19.58794 5600.000
19.60243 5503.000
19.61691 5508.000
19.63139 5486.000
19.64588 5462.000
19.66036 5476.000
19.67484 5523.000
19.68933 5398.000
19.70381 5443.000
19.71829 5541.000
19.73278 5516.000
19.74726 5483.000
19.76174 5542.000
19.77623 5595.000
19.79071 5392.000
19.80519 5538.000
19.81968 5557.000
19.83416 5493.000
19.84864 5510.000
19.86313 5375.000
19.87761 5516.000
19.89209 5441.000
19.90658 5485.000
19.92106 5607.000
19.93554 5468.000
19.95003 5458.000
19.96451 5519.000
19.97899 5402.000
19.99348 5445.000
20.00796 5385.000
20.02244 5477.000
20.03693 5414.000
20.05141 5562.000
20.06589 5489.000
20.08038 5564.000
20.09486 5391.000
20.10934 5522.000
20.12383 5384.000
20.13831 5494.000
20.15279 5481.000
20.16728 5469.000
20.18176 5440.000
20.19624 5323.000
20.21073 5427.000
20.22521 5418.000
20.23969 5396.000
20.25418 5355.000
20.26866 5314.000
20.28314 5388.000
20.29763 5413.000
20.31211 5499.000
20.32659 5284.000
20.34108 5479.000
20.35556 5343.000
20.37004 5354.000
20.38453 5385.000
20.39901 5441.000
20.41349 5440.000
20.42798 5332.000
20.44246 5453.000
20.45694 5458.000
20.47143 5299.000
20.48591 5398.000
20.50039 5263.000
20.51488 5521.000
20.52936 5456.000
20.54384 5360.000
20.55833 5294.000
20.57281 5356.000
20.58729 5430.000
20.60178 5331.000
20.61626 5505.000
20.63074 5412.000
20.64523 5261.000
20.65971 5417.000
20.67419 5316.000
20.68868 5353.000
20.70316 5454.000
20.71764 5177.000
20.73213 5323.000
20.74661 5483.000
20.76109 5365.000
20.77558 5457.000
20.79006 5340.000
20.80454 5307.000
20.81903 5216.000
20.83351 5430.000
20.84799 5560.000
20.86248 5487.000
20.87696 5398.000
20.89144 5360.000
20.90592 5332.000
20.92041 5372.000
20.93489 5383.000
20.94937 5586.000
20.96386 5502.000
20.97834 5385.000
20.99282 5428.000
21.00731 5597.000
21.02179 5534.000
21.03627 5544.000
21.05076 5622.000
21.06524 5685.000
21.07972 5555.000
21.09421 5619.000
21.10869 5462.000
21.12317 5531.000
21.13766 5550.000
21.15214 5545.000
21.16662 5380.000
21.18111 5458.000
21.19559 5472.000
21.21007 5367.000
21.22456 5452.000
21.23904 5298.000
21.25352 5409.000
21.26801 5293.000
21.28249 5234.000
21.29697 5283.000
21.31146 5214.000
21.32594 5150.000
21.34042 5348.000
21.35491 5293.000
21.36939 5388.000
21.38387 5432.000
21.39836 5397.000
21.41284 5223.000
21.42732 5299.000
21.44181 5249.000
21.45629 5327.000
21.47077 5279.000
21.48526 5230.000
21.49974 5363.000
21.51422 5297.000
21.52871 5420.000
21.54319 5379.000
21.55767 5276.000
21.57216 5257.000
21.58664 5186.000
21.60112 5282.000
21.61561 5244.000
21.63009 5130.000
21.64457 5191.000
21.65906 5326.000
21.67354 5263.000
21.68802 5310.000
21.70251 5373.000
21.71699 5262.000
21.73147 5205.000
21.74596 5131.000
21.76044 5178.000
21.77492 5321.000
21.78941 5167.000
21.80389 5354.000
21.81837 5260.000
21.83286 5260.000
21.84734 5221.000
21.86182 5243.000
21.87631 5130.000
21.89079 5202.000
21.90527 5184.000
21.91976 5271.000
21.93424 5176.000
21.94872 5105.000
21.96321 5139.000
21.97769 5205.000
21.99217 5179.000
22.00666 5184.000
22.02114 5262.000
22.03562 5253.000
22.05011 5115.000
22.06459 5073.000
22.07907 5118.000
22.09356 5204.000
22.10804 5130.000
22.12252 5195.000
22.13701 5189.000
22.15149 5205.000
22.16597 5130.000
22.18046 5136.000
22.19494 5171.000
22.20942 5166.000
22.22391 5093.000
22.23839 5187.000
22.25287 5064.000
22.26736 5136.000
22.28184 5226.000
22.29632 5181.000
22.31081 5110.000
22.32529 5140.000
22.33977 5177.000
22.35425 5259.000
22.36874 5130.000
22.38322 5250.000
22.39770 5183.000
22.41219 5139.000
22.42667 5151.000
22.44115 5286.000
22.45564 5321.000
22.47012 5226.000
22.48460 5143.000
22.49909 5177.000
22.51357 5093.000
22.52805 5286.000
22.54254 5290.000
22.55702 5242.000
22.57150 5135.000
22.58599 5177.000
22.60047 5134.000
22.61495 5046.000
22.62944 5117.000
22.64392 5136.000
22.65840 5216.000
22.67289 5247.000
22.68737 5190.000
22.70185 5172.000
22.71634 5103.000
22.73082 5145.000
22.74530 5243.000
22.75979 5140.000
22.77427 5000.000
22.78875 5112.000
22.80324 5109.000
22.81772 4977.000
22.83220 5128.000
22.84669 5079.000
22.86117 5150.000
22.87565 4973.000
22.89014 5222.000
22.90462 5052.000
22.91910 5154.000
22.93359 5154.000
22.94807 5039.000
22.96255 5113.000
22.97704 5139.000
22.99152 5111.000
23.00600 5113.000
23.02049 5217.000
23.03497 4962.000
23.04945 5073.000
23.06394 5105.000
23.07842 5186.000
23.09290 5095.000
23.10739 5088.000
23.12187 5147.000
23.13635 5046.000
23.15084 4967.000
23.16532 5094.000
23.17980 5108.000
23.19429 5180.000
23.20877 5198.000
23.22325 5134.000
23.23774 5195.000
23.25222 5071.000
23.26670 5066.000
23.28119 5181.000
23.29567 5078.000
23.31015 5123.000
23.32464 5143.000
23.33912 5051.000
23.35360 5182.000
23.36809 5134.000
23.38257 5045.000
23.39705 5099.000
23.41154 5021.000
23.42602 5107.000
23.44050 5159.000
23.45499 5107.000
23.46947 5006.000
23.48395 5169.000
23.49844 5029.000
23.51292 5183.000
23.52740 5148.000
23.54189 5072.000
23.55637 5028.000
23.57085 5164.000
23.58534 5175.000
23.59982 4946.000
23.61430 5123.000
23.62879 5042.000
23.64327 5045.000
23.65775 5158.000
23.67224 5146.000
23.68672 5245.000
23.70120 5126.000
23.71569 5073.000
23.73017 4896.000
23.74465 5083.000
23.75914 5081.000
23.77362 5126.000
23.78810 5077.000
23.80258 5100.000
23.81707 5168.000
23.83155 5019.000
23.84603 4940.000
23.86052 5133.000
23.87500 5114.000
23.88948 5068.000
23.90397 5165.000
23.91845 5026.000
23.93293 5159.000
23.94742 5200.000
23.96190 5072.000
23.97638 4933.000
23.99087 5136.000
24.00535 4965.000
24.01983 4926.000
24.03432 5027.000
24.04880 5030.000
24.06328 5100.000
24.07777 5100.000
24.09225 5056.000
24.10673 5022.000
24.12122 4962.000
24.13570 5018.000
24.15018 5047.000
24.16467 5072.000
24.17915 5090.000
24.19363 5095.000
24.20812 5036.000
24.22260 5119.000
24.23708 5080.000
24.25157 4959.000
24.26605 4925.000
24.28053 5118.000
24.29502 5040.000
24.30950 5120.000
24.32398 5160.000
24.33847 4921.000
24.35295 5040.000
24.36743 5022.000
24.38192 5023.000
24.39640 5005.000
24.41088 5104.000
24.42537 4910.000
24.43985 4995.000
24.45433 5127.000
24.46882 5116.000
24.48330 5097.000
24.49778 5022.000
24.51227 4989.000
24.52675 5168.000
24.54123 5020.000
24.55572 4962.000
24.57020 5118.000
24.58468 5005.000
24.59917 5008.000
24.61365 5094.000
24.62813 5039.000
24.64262 5042.000
24.65710 5007.000
24.67158 5050.000
24.68607 5155.000
24.70055 5106.000
24.71503 5092.000
24.72952 5090.000
24.74400 5131.000
24.75848 5081.000
24.77297 5122.000
24.78745 5165.000
24.80193 5037.000
24.81642 5043.000
24.83090 5079.000
24.84538 5036.000
24.85987 5084.000
24.87435 4988.000
24.88883 4944.000
24.90332 5111.000
24.91780 4962.000
24.93228 5123.000
24.94677 5166.000
24.96125 5109.000
24.97573 5101.000
24.99022 5081.000
25.00470 4980.000
25.01918 5044.000
25.03367 4925.000
25.04815 5051.000
25.06263 5053.000
25.07712 5076.000
25.09160 4971.000
25.10608 5089.000
25.12057 5054.000
25.13505 4986.000
25.14953 5062.000
25.16402 4977.000
25.17850 5070.000
25.19298 5152.000
25.20747 5039.000
25.22195 5037.000
25.23643 5046.000
25.25091 4996.000
25.26540 5091.000
25.27988 5042.000
25.29436 5029.000
25.30885 5050.000
25.32333 5136.000
25.33781 5099.000
25.35230 5018.000
25.36678 5034.000
25.38126 5037.000
25.39575 5050.000
25.41023 5027.000
25.42471 5000.000
25.43920 5048.000
25.45368 4952.000
25.46816 5029.000
25.48265 5012.000
25.49713 5076.000
25.51161 5055.000
25.52610 5011.000
25.54058 5040.000
25.55506 5090.000
25.56955 5045.000
25.58403 4949.000
25.59851 5109.000
25.61300 5070.000
25.62748 5107.000
25.64196 5070.000
25.65645 4991.000
25.67093 4996.000
25.68541 4929.000
25.69990 4970.000
25.71438 5094.000
25.72886 5047.000
25.74335 5034.000
25.75783 5043.000
25.77231 4996.000
25.78680 4925.000
25.80128 4995.000
25.81576 5058.000
25.83025 4999.000
25.84473 4915.000
25.85921 5052.000
25.87370 5044.000
25.88818 5018.000
25.90266 5046.000
25.91715 5008.000
25.93163 4965.000
25.94611 5068.000
25.96060 4945.000
25.97508 5116.000
25.98956 5066.000
26.00405 5061.000
26.01853 4967.000
26.03301 5012.000
26.04750 5131.000
26.06198 5109.000
26.07646 5004.000
26.09095 5063.000
26.10543 4984.000
26.11991 4967.000
26.13440 4873.000
26.14888 5097.000
26.16336 5051.000
26.17785 4925.000
26.19233 5007.000
26.20681 5016.000
26.22130 5187.000
26.23578 4991.000
26.25026 4994.000
26.26475 4984.000
26.27923 5102.000
26.29371 5002.000
26.30820 4953.000
26.32268 5064.000
26.33716 5122.000
26.35165 4848.000
26.36613 5050.000
26.38061 5070.000
26.39510 5074.000
26.40958 5011.000
26.42406 5069.000
26.43855 4963.000
26.45303 5022.000
26.46751 5097.000
26.48200 4965.000
26.49648 5209.000
26.51096 5034.000
26.52545 5048.000
26.53993 4979.000
26.55441 4972.000
26.56890 4959.000
26.58338 4977.000
26.59786 4979.000
26.61235 5112.000
26.62683 5065.000
26.64131 5096.000
26.65580 4946.000
26.67028 5117.000
26.68476 4791.000
26.69924 5079.000
26.71373 5181.000
26.72821 5048.000
26.74269 5059.000
26.75718 5075.000
26.77166 5108.000
26.78614 4981.000
26.80063 5136.000
26.81511 4973.000
26.82959 5056.000
26.84408 5066.000
26.85856 5088.000
26.87304 5164.000
26.88753 4992.000
26.90201 4980.000
26.91649 5044.000
26.93098 4905.000
26.94546 4991.000
26.95994 5054.000
26.97443 5039.000
26.98891 5080.000
27.00339 5070.000
27.01788 5133.000
27.03236 5198.000
27.04684 5131.000
27.06133 5072.000
27.07581 5125.000
27.09029 5029.000
27.10478 4964.000
27.11926 5035.000
27.13374 5087.000
27.14823 5092.000
27.16271 5223.000
27.17719 5079.000
27.19168 5040.000
27.20616 4957.000
27.22064 5069.000
27.23513 4941.000
27.24961 5113.000
27.26409 5134.000
27.27858 5140.000
27.29306 5127.000
27.30754 5142.000
27.32203 5040.000
27.33651 5064.000
27.35099 5103.000
27.36548 5091.000
27.37996 5012.000
27.39444 5096.000
27.40893 5028.000
27.42341 5129.000
27.43789 4978.000
27.45238 5106.000
27.46686 4959.000
27.48134 5178.000
27.49583 5070.000
27.51031 5106.000
27.52479 5121.000
27.53928 5025.000
27.55376 5099.000
27.56824 5049.000
27.58273 4980.000
27.59721 5054.000
27.61169 5175.000
27.62618 5033.000
27.64066 5023.000
27.65514 5117.000
27.66963 5062.000
27.68411 5092.000
27.69859 5063.000
27.71308 5234.000
27.72756 5158.000
27.74204 5061.000
27.75653 5105.000
27.77101 5185.000
27.78549 5093.000
27.79998 5253.000
27.81446 5169.000
27.82894 5257.000
27.84343 5260.000
27.85791 5359.000
27.87239 5516.000
27.88688 5500.000
27.90136 5376.000
27.91584 5567.000
27.93033 5818.000
27.94481 5636.000
27.95929 5756.000
27.97378 5622.000
27.98826 5778.000
28.00274 5831.000
28.01723 5713.000
28.03171 5658.000
28.04619 5619.000
28.06068 5676.000
28.07516 5608.000
28.08964 5513.000
28.10413 5417.000
28.11861 5240.000
28.13309 5392.000
28.14757 5275.000
28.16206 5168.000
28.17654 5072.000
28.19102 5233.000
28.20551 5212.000
28.21999 5060.000
28.23447 5185.000
28.24896 5154.000
28.26344 5037.000
28.27792 5152.000
28.29241 5119.000
28.30689 5184.000
28.32137 5119.000
28.33586 5169.000
28.35034 5142.000
28.36482 5115.000
28.37931 5004.000
28.39379 5090.000
28.40827 4898.000
28.42276 5127.000
28.43724 4989.000
28.45172 5101.000
28.46621 5074.000
28.48069 5134.000
28.49517 5147.000
28.50966 5051.000
28.52414 5147.000
28.53862 5217.000
28.55311 5016.000
28.56759 5055.000
28.58207 5081.000
28.59656 5065.000
28.61104 5070.000
28.62552 4966.000
28.64001 4947.000
28.65449 5062.000
28.66897 5080.000
28.68346 5070.000
28.69794 4965.000
28.71242 5112.000
28.72691 5059.000
28.74139 5138.000
28.75587 5034.000
28.77036 5188.000
28.78484 5070.000
28.79932 5120.000
28.81381 5073.000
28.82829 5065.000
28.84277 5069.000
28.85726 4978.000
28.87174 5030.000
28.88622 5166.000
28.90071 5153.000
28.91519 5267.000
28.92967 5137.000
28.94416 5091.000
28.95864 5305.000
28.97312 5085.000
28.98761 5213.000
29.00209 5069.000
29.01657 5258.000
29.03106 5133.000
29.04554 5169.000
29.06002 5258.000
29.07451 5204.000
29.08899 5124.000
29.10347 5215.000
29.11796 5214.000
29.13244 5219.000
29.14692 5148.000
29.16141 5335.000
29.17589 5265.000
29.19037 5167.000
29.20486 5485.000
29.21934 5267.000
29.23382 5329.000
29.24831 5281.000
29.26279 5323.000
29.27727 5395.000
29.29176 5418.000
29.30624 5534.000
29.32072 5353.000
29.33521 5437.000
29.34969 5482.000
29.36417 5537.000
29.37866 5526.000
29.39314 5595.000
29.40762 5521.000
29.42211 5524.000
29.43659 5710.000
29.45107 5462.000
29.46556 5687.000
29.48004 5537.000
29.49452 5573.000
29.50901 5628.000
29.52349 5533.000
29.53797 5654.000
29.55246 5644.000
29.56694 5644.000
29.58142 5816.000
29.59590 5659.000
29.61039 5854.000
29.62487 5892.000
29.63935 5822.000
29.65384 5859.000
29.66832 5910.000
29.68280 5819.000
29.69729 5872.000
29.71177 5831.000
29.72625 5911.000
29.74074 5951.000
29.75522 5986.000
29.76970 6173.000
29.78419 6239.000
29.79867 6258.000
29.81315 6251.000
29.82764 6384.000
29.84212 6582.000
29.85660 6567.000
29.87109 6813.000
29.88557 6988.000
29.90005 7124.000
29.91454 7338.000
29.92902 7735.000
29.94350 8002.000
29.95799 8279.000
29.97247 9098.000
29.98695 9535.000
30.00144 10138.000
30.01592 11030.000
30.03040 11872.000
30.04489 13234.000
30.05937 14621.000
30.07385 16283.000
30.08834 18187.000
30.10282 21162.000
30.11730 23802.000
30.13179 26560.000
30.14627 30521.000
30.16075 33961.000
30.17524 38144.000
30.18972 42330.000
30.20420 47440.000
30.21869 52188.000
30.23317 56681.000
30.24765 60205.000
30.26214 62496.000
30.27662 61984.000
30.29110 60012.000
30.30559 56297.000
30.32007 51414.000
30.33455 47144.000
30.34904 42068.000
30.36352 37152.000
30.37800 31972.000
30.39249 27237.000
30.40697 23350.000
30.42145 19791.000
30.43594 17151.000
30.45042 15071.000
30.46490 13579.000
30.47939 11916.000
30.49387 10912.000
30.50835 10209.000
30.52284 9571.000
30.53732 9025.000
30.55180 8388.000
30.56629 8277.000
30.58077 7754.000
30.59525 7390.000
30.60974 7348.000
30.62422 7105.000
30.63870 6851.000
30.65319 6690.000
30.66767 6734.000
30.68215 6435.000
30.69664 6500.000
30.71112 6512.000
30.72560 6245.000
30.74009 6128.000
30.75457 6221.000
30.76905 6064.000
30.78354 6004.000
30.79802 5804.000
30.81250 5788.000
30.82699 5825.000
30.84147 5830.000
30.85595 5797.000
30.87044 5687.000
30.88492 5768.000
30.89940 5752.000
30.91389 5760.000
30.92837 5667.000
30.94285 5720.000
30.95734 5621.000
30.97182 5614.000
30.98630 5495.000
31.00079 5651.000
31.01527 5663.000
31.02975 5546.000
31.04423 5598.000
31.05872 5559.000
31.07320 5455.000
31.08768 5696.000
31.10217 5575.000
31.11665 5465.000
31.13113 5510.000
31.14562 5530.000
31.16010 5478.000
31.17458 5423.000
31.18907 5371.000
31.20355 5400.000
31.21803 5455.000
31.23252 5431.000
31.24700 5390.000
31.26148 5233.000
31.27597 5410.000
31.29045 5485.000
31.30493 5539.000
31.31942 5287.000
31.33390 5322.000
31.34838 5367.000
31.36287 5251.000
31.37735 5212.000
31.39183 5292.000
31.40632 5334.000
31.42080 5311.000
31.43528 5365.000
31.44977 5164.000
31.46425 5283.000
31.47873 5246.000
31.49322 5362.000
31.50770 5310.000
31.52218 5385.000
31.53667 5512.000
31.55115 5417.000
31.56563 5226.000
31.58012 5213.000
31.59460 5250.000
31.60908 5363.000
31.62357 5126.000
31.63805 5360.000
31.65253 5404.000
31.66702 5359.000
31.68150 5243.000
31.69598 5408.000
31.71047 5332.000
31.72495 5324.000
31.73943 5332.000
31.75392 5258.000
31.76840 5247.000
31.78288 5404.000
31.79737 5360.000
31.81185 5286.000
31.82633 5328.000
31.84082 5340.000
31.85530 5289.000
31.86978 5582.000
31.88427 5514.000
31.89875 5498.000
31.91323 5685.000
31.92772 5537.000
31.94220 5631.000
31.95668 5548.000
31.97117 5503.000
31.98565 5664.000
32.00013 5727.000
32.01462 5761.000
32.02910 5612.000
32.04358 5824.000
32.05807 5659.000
32.07255 5828.000
32.08703 5626.000
32.10152 5577.000
32.11600 5737.000
32.13048 5723.000
32.14497 5578.000
32.15945 5601.000
32.17393 5359.000
32.18842 5463.000
32.20290 5517.000
32.21738 5345.000
32.23187 5437.000
32.24635 5377.000
32.26083 5392.000
32.27532 5372.000
32.28980 5355.000
32.30428 5415.000
32.31877 5221.000
32.33325 5285.000
32.34773 5279.000
32.36222 5277.000
32.37670 5373.000
32.39118 5227.000
32.40567 5097.000
32.42015 5128.000
32.43463 5165.000
32.44912 5131.000
32.46360 5175.000
32.47808 5145.000
32.49256 5228.000
32.50705 5321.000
32.52153 5132.000
32.53601 5200.000
32.55050 5033.000
32.56498 5251.000
32.57946 5193.000
32.59395 5053.000
32.60843 5245.000
32.62291 5064.000
32.63740 5075.000
32.65188 5081.000
32.66636 5185.000
32.68085 5215.000
32.69533 5178.000
32.70981 5165.000
32.72430 5242.000
32.73878 5034.000
32.75326 5089.000
32.76775 5008.000
32.78223 5114.000
32.79671 5152.000
32.81120 5194.000
32.82568 5049.000
32.84016 5034.000
32.85465 5179.000
32.86913 5035.000
32.88361 4981.000
32.89810 4963.000
32.91258 5162.000
32.92706 5252.000
32.94155 5265.000
32.95603 5179.000
32.97051 5054.000
32.98500 5083.000
32.99948 5252.000
33.01396 5184.000
33.02845 5110.000
33.04293 5113.000
33.05741 5139.000
33.07190 5181.000
33.08638 5083.000
33.10086 5286.000
33.11535 5085.000
33.12983 5186.000
33.14431 5084.000
33.15880 5134.000
33.17328 4942.000
33.18776 5074.000
33.20225 5159.000
33.21673 5173.000
33.23121 5148.000
33.24570 5086.000
33.26018 5193.000
33.27466 5084.000
33.28915 5168.000
33.30363 5153.000
33.31811 5006.000
33.33260 5078.000
33.34708 5102.000
33.36156 5137.000
33.37605 5047.000
33.39053 5051.000
33.40501 4945.000
33.41950 5114.000
33.43398 5123.000
33.44846 5097.000
33.46295 5206.000
33.47743 5036.000
33.49191 5182.000
33.50640 5100.000
33.52088 5179.000
33.53536 5207.000
33.54985 5209.000
33.56433 5219.000
33.57881 5206.000
33.59330 5007.000
33.60778 5113.000
33.62226 5156.000
33.63675 5106.000
33.65123 5389.000
33.66571 5178.000
33.68020 5156.000
33.69468 5195.000
33.70916 5001.000
33.72365 5150.000
33.73813 5045.000
33.75261 5021.000
33.76710 5202.000
33.78158 5018.000
33.79606 5086.000
33.81055 5116.000
33.82503 5261.000
33.83951 5242.000
33.85400 5301.000
33.86848 5206.000
33.88296 5076.000
33.89745 5098.000
33.91193 5279.000
33.92641 5124.000
33.94089 5306.000
33.95538 5297.000
33.96986 5238.000
33.98434 5352.000
33.99883 5245.000
34.01331 5388.000
34.02779 5318.000
34.04228 5451.000
34.05676 5364.000
34.07124 5530.000
34.08573 5466.000
34.10021 5422.000
34.11469 5645.000
34.12918 5477.000
34.14366 5527.000
34.15814 5727.000
34.17263 5498.000
34.18711 5517.000
34.20159 5585.000
34.21608 5595.000
34.23056 5686.000
34.24504 5663.000
34.25953 5583.000
34.27401 5616.000
34.28849 5596.000
34.30298 5616.000
34.31746 5772.000
34.33194 5791.000
34.34643 5797.000
34.36091 5661.000
34.37539 5768.000
34.38988 5948.000
34.40436 5827.000
34.41884 5951.000
34.43333 6023.000
34.44781 5971.000
34.46229 5968.000
34.47678 5868.000
34.49126 6013.000
34.50574 5944.000
34.52023 6016.000
34.53471 5939.000
34.54919 6040.000
34.56368 5940.000
34.57816 6027.000
34.59264 6025.000
34.60713 6115.000
34.62161 6139.000
34.63609 6133.000
34.65058 6093.000
34.66506 6189.000
34.67954 6173.000
34.69403 5951.000
34.70851 6004.000
34.72299 5984.000
34.73748 5996.000
34.75196 6082.000
34.76644 6176.000
34.78093 6188.000
34.79541 6121.000
34.80989 6229.000
34.82438 6270.000
34.83886 6173.000
34.85334 6302.000
34.86783 6194.000
34.88231 6242.000
34.89679 6358.000
34.91128 6443.000
34.92576 6557.000
34.94024 6521.000
34.95473 6575.000
34.96921 6640.000
34.98369 6725.000
34.99818 6795.000
35.01266 6784.000
35.02714 6907.000
35.04163 7185.000
35.05611 7096.000
35.07059 7329.000
35.08508 7347.000
35.09956 7519.000
35.11404 7643.000
35.12853 7888.000
35.14301 7880.000
35.15749 8392.000
35.17198 8547.000
35.18646 8912.000
35.20094 9243.000
35.21543 9659.000
35.22991 10082.000
35.24439 10434.000
35.25888 11148.000
35.27336 11903.000
35.28784 12703.000
35.30233 13892.000
35.31681 15146.000
35.33129 16425.000
35.34578 17988.000
35.36026 20414.000
35.37474 22893.000
35.38922 25976.000
35.40371 29959.000
35.41819 34818.000
35.43267 40633.000
35.44716 46962.000
35.46164 54124.000
35.47612 62504.000
35.49061 70400.000
35.50509 79173.000
35.51957 87945.000
35.53406 97774.000
35.54854 107133.000
35.56302 117369.000
35.57751 128240.000
35.59199 138276.000
35.60647 144450.000
35.62096 147628.000
35.63544 145237.000
35.64992 138893.000
35.66441 128704.000
35.67889 117249.000
35.69337 108312.000
35.70786 98119.000
35.72234 88120.000
35.73682 77732.000
35.75131 66897.000
35.76579 55955.000
35.78027 46481.000
35.79476 39157.000
35.80924 33168.000
35.82372 28370.000
35.83821 24658.000
35.85269 21864.000
35.86717 19420.000
35.88166 17155.000
35.89614 15683.000
35.91062 14174.000
35.92511 13159.000
35.93959 12182.000
35.95407 11322.000
35.96856 10817.000
35.98304 10297.000
35.99752 9687.000
36.01201 9302.000
36.02649 9068.000
36.04097 8744.000
36.05546 8399.000
36.06994 8266.000
36.08442 7963.000
36.09891 7934.000
36.11339 7647.000
36.12787 7777.000
36.14236 7483.000
36.15684 7354.000
36.17132 7247.000
36.18581 7053.000
36.20029 6994.000
36.21477 6801.000
36.22926 6843.000
36.24374 6931.000
36.25822 7037.000
36.27271 6894.000
36.28719 6788.000
36.30167 6718.000
36.31616 6674.000
36.33064 6848.000
36.34512 6544.000
36.35961 6804.000
36.37409 6751.000
36.38857 6804.000
36.40306 6994.000
36.41754 6744.000
36.43202 6690.000
36.44651 6718.000
36.46099 6634.000
36.47547 6620.000
36.48996 6506.000
36.50444 6632.000
36.51892 6433.000
36.53341 6316.000
36.54789 6232.000
36.56237 6140.000
36.57686 6234.000
36.59134 6070.000
36.60582 6066.000
36.62031 6055.000
36.63479 5943.000
36.64927 5964.000
36.66376 5989.000
36.67824 5893.000
36.69272 5821.000
36.70721 5860.000
36.72169 5838.000
36.73617 5788.000
36.75066 5743.000
36.76514 5599.000
36.77962 5650.000
36.79411 5560.000
36.80859 5609.000
36.82307 5638.000
36.83755 5626.000
36.85204 5543.000
36.86652 5550.000
36.88100 5638.000
36.89549 5640.000
36.90997 5738.000
36.92445 5804.000
36.93894 5895.000
36.95342 5824.000
36.96790 5792.000
36.98239 6109.000
36.99687 6128.000
37.01135 6160.000
37.02584 6381.000
37.04032 6507.000
37.05480 6630.000
37.06929 7006.000
37.08377 7313.000
37.09825 7656.000
37.11274 7933.000
37.12722 8398.000
37.14170 8713.000
37.15619 9054.000
37.17067 9544.000
37.18515 9918.000
37.19964 10350.000
37.21412 10605.000
37.22860 11147.000
37.24309 11239.000
37.25757 11135.000
37.27205 10776.000
37.28654 10382.000
37.30102 9822.000
37.31550 9589.000
37.32999 9100.000
37.34447 8735.000
37.35895 8183.000
37.37344 7785.000
37.38792 7305.000
37.40240 6894.000
37.41689 6533.000
37.43137 6208.000
37.44585 6058.000
37.46034 5806.000
37.47482 5657.000
37.48930 5435.000
37.50379 5384.000
37.51827 5407.000
37.53275 5326.000
37.54724 5327.000
37.56172 5235.000
37.57620 5243.000
37.59069 5193.000
37.60517 5121.000
37.61965 4951.000
37.63414 5189.000
37.64862 5096.000
37.66310 5059.000
37.67759 5175.000
37.69207 4969.000
37.70655 5043.000
37.72104 4987.000
37.73552 5106.000
37.75000 4925.000
37.76449 4945.000
37.77897 4996.000
37.79345 5034.000
37.80794 5070.000
37.82242 4879.000
37.83690 4812.000
37.85139 4972.000
37.86587 4914.000
37.88035 4903.000
37.89484 4924.000
37.90932 5029.000
37.92380 4921.000
37.93829 4848.000
37.95277 4921.000
37.96725 4986.000
37.98174 4900.000
37.99622 4770.000
38.01070 4852.000
38.02519 4940.000
38.03967 4826.000
38.05415 4831.000
38.06864 4885.000
38.08312 4854.000
38.09760 4745.000
38.11209 4817.000
38.12657 4763.000
38.14105 4797.000
38.15554 4813.000
38.17002 4766.000
38.18450 4754.000
38.19899 4739.000
38.21347 4910.000
38.22795 4850.000
38.24244 4915.000
38.25692 4811.000
38.27140 4893.000
38.28588 4771.000
38.30037 4956.000
38.31485 4810.000
38.32933 4717.000
38.34382 4911.000
38.35830 4789.000
38.37278 4597.000
38.38727 4752.000
38.40175 4663.000
38.41623 4618.000
38.43072 4720.000
38.44520 4765.000
38.45968 4603.000
38.47417 4629.000
38.48865 4777.000
38.50313 4852.000
38.51762 4662.000
38.53210 4794.000
38.54658 4632.000
38.56107 4681.000
38.57555 4677.000
38.59003 4780.000
38.60452 4766.000
38.61900 4698.000
38.63348 4704.000
38.64797 4704.000
38.66245 4858.000
38.67693 4755.000
38.69142 4834.000
38.70590 4882.000
38.72038 4789.000
38.73487 4649.000
38.74935 4718.000
38.76383 4758.000
38.77832 4845.000
38.79280 4774.000
38.80728 4840.000
38.82177 4708.000
38.83625 4772.000
38.85073 4777.000
38.86522 4852.000
38.87970 4829.000
38.89418 4876.000
38.90867 4742.000
38.92315 4820.000
38.93763 4942.000
38.95212 4899.000
38.96660 4874.000
38.98108 4823.000
38.99557 4779.000
39.01005 4757.000
39.02453 4897.000
39.03902 4666.000
39.05350 4976.000
39.06798 4721.000
39.08247 4909.000
39.09695 4750.000
39.11143 4631.000
39.12592 4839.000
39.14040 4622.000
39.15488 4713.000
39.16937 4661.000
39.18385 4723.000
39.19833 4839.000
39.21282 4673.000
39.22730 4693.000
39.24178 4651.000
39.25627 4753.000
39.27075 4736.000
39.28523 4695.000
39.29972 4628.000
39.31420 4685.000
39.32868 4636.000
39.34317 4594.000
39.35765 4736.000
39.37213 4667.000
39.38662 4778.000
39.40110 4644.000
39.41558 4642.000
39.43007 4640.000
39.44455 4656.000
39.45903 4641.000
39.47352 4545.000
39.48800 4622.000
39.50248 4605.000
39.51697 4557.000
39.53145 4562.000
39.54593 4482.000
39.56042 4679.000
39.57490 4656.000
39.58938 4708.000
39.60387 4540.000
39.61835 4676.000
39.63283 4574.000
39.64732 4555.000
39.66180 4511.000
39.67628 4594.000
39.69077 4633.000
39.70525 4723.000
39.71973 4665.000
39.73421 4640.000
39.74870 4475.000
39.76318 4621.000
39.77766 4621.000
39.79215 4577.000
39.80663 4614.000
39.82111 4721.000
39.83560 4744.000
39.85008 4680.000
39.86456 4701.000
39.87905 4495.000
39.89353 4447.000
39.90801 4684.000
39.92250 4645.000
39.93698 4628.000
39.95146 4611.000
39.96595 4594.000
39.98043 4659.000
39.99491 4679.000
40.00940 4556.000
40.02388 4555.000
40.03836 4673.000
40.05285 4617.000
40.06733 4666.000
40.08181 4614.000
40.09630 4534.000
40.11078 4563.000
40.12526 4604.000
40.13975 4618.000
40.15423 4572.000
40.16871 4634.000
40.18320 4536.000
40.19768 4528.000
40.21216 4625.000
40.22665 4598.000
40.24113 4579.000
40.25561 4557.000
40.27010 4627.000
40.28458 4540.000
40.29906 4465.000
40.31355 4560.000
40.32803 4583.000
40.34251 4483.000
40.35700 4619.000
40.37148 4567.000
40.38596 4671.000
40.40045 4535.000
40.41493 4628.000
40.42941 4501.000
40.44390 4503.000
40.45838 4512.000
40.47286 4643.000
40.48735 4496.000
40.50183 4511.000
40.51631 4510.000
40.53080 4506.000
40.54528 4440.000
40.55976 4499.000
40.57425 4541.000
40.58873 4539.000
40.60321 4590.000
40.61770 4527.000
40.63218 4585.000
40.64666 4509.000
40.66115 4494.000
40.67563 4641.000
40.69011 4619.000
40.70460 4588.000
40.71908 4663.000
40.73356 4588.000
40.74805 4413.000
40.76253 4590.000
40.77701 4501.000
40.79150 4451.000
40.80598 4510.000
40.82046 4491.000
40.83495 4486.000
40.84943 4503.000
40.86391 4532.000
40.87840 4518.000
40.89288 4653.000
40.90736 4567.000
40.92185 4457.000
40.93633 4481.000
40.95081 4377.000
40.96530 4346.000
40.97978 4609.000
40.99426 4471.000
41.00875 4506.000
41.02323 4544.000
41.03771 4548.000
41.05220 4527.000
41.06668 4587.000
41.08116 4516.000
41.09565 4510.000
41.11013 4425.000
41.12461 4509.000
41.13910 4588.000
41.15358 4529.000
41.16806 4514.000
41.18254 4471.000
41.19703 4617.000
41.21151 4500.000
41.22599 4572.000
41.24048 4590.000
41.25496 4457.000
41.26944 4461.000
41.28393 4482.000
41.29841 4640.000
41.31289 4528.000
41.32738 4610.000
41.34186 4537.000
41.35634 4562.000
41.37083 4470.000
41.38531 4573.000
41.39979 4500.000
41.41428 4510.000
41.42876 4611.000
41.44324 4508.000
41.45773 4630.000
41.47221 4552.000
41.48669 4534.000
41.50118 4618.000
41.51566 4630.000
41.53014 4569.000
41.54463 4662.000
41.55911 4599.000
41.57359 4632.000
41.58808 4667.000
41.60256 4420.000
41.61704 4512.000
41.63153 4539.000
41.64601 4585.000
41.66049 4564.000
41.67498 4712.000
41.68946 4559.000
41.70394 4630.000
41.71843 4582.000
41.73291 4495.000
41.74739 4424.000
41.76188 4555.000
41.77636 4499.000
41.79084 4497.000
41.80533 4563.000
41.81981 4444.000
41.83429 4573.000
41.84878 4538.000
41.86326 4571.000
41.87774 4710.000
41.89223 4498.000
41.90671 4700.000
41.92119 4543.000
41.93568 4536.000
41.95016 4533.000
41.96464 4695.000
41.97913 4620.000
41.99361 4575.000
42.00809 4480.000
42.02258 4582.000
42.03706 4491.000
42.05154 4672.000
42.06603 4580.000
42.08051 4749.000
42.09499 4554.000
42.10948 4513.000
42.12396 4695.000
42.13844 4559.000
42.15293 4533.000
42.16741 4649.000
42.18189 4627.000
42.19638 4730.000
42.21086 4692.000
42.22534 4707.000
42.23983 4776.000
42.25431 4780.000
42.26879 4637.000
42.28328 4775.000
42.29776 4845.000
42.31224 4762.000
42.32673 4654.000
42.34121 4875.000
42.35569 4675.000
42.37018 4781.000
42.38466 4791.000
42.39914 4819.000
42.41363 4809.000
42.42811 4845.000
42.44259 4969.000
42.45708 4818.000
42.47156 4790.000
42.48604 4850.000
42.50053 4764.000
42.51501 4697.000
42.52949 4887.000
42.54398 4749.000
42.55846 4795.000
42.57294 4707.000
42.58743 4896.000
42.60191 4943.000
42.61639 4822.000
42.63087 4947.000
42.64536 4981.000
42.65984 4854.000
42.67432 4853.000
42.68881 4977.000
42.70329 5000.000
42.71777 4958.000
42.73226 5013.000
42.74674 5117.000
42.76122 4944.000
42.77571 5187.000
42.79019 5194.000
42.80467 5139.000
42.81916 5300.000
42.83364 5343.000
42.84812 5363.000
42.86261 5382.000
42.87709 5597.000
42.89157 5560.000
42.90606 5813.000
42.92054 6001.000
42.93502 6090.000
42.94951 6334.000
42.96399 6578.000
42.97847 6886.000
42.99296 7124.000
43.00744 7542.000
43.02192 8160.000
43.03641 8760.000
43.05089 9359.000
43.06537 10218.000
43.07986 11008.000
43.09434 11936.000
43.10882 12907.000
43.12331 13875.000
43.13779 15503.000
43.15227 16618.000
43.16676 17950.000
43.18124 19131.000
43.19572 20354.000
43.21021 21655.000
43.22469 22436.000
43.23917 22695.000
43.25366 23034.000
43.26814 22121.000
43.28262 21274.000
43.29711 20156.000
43.31159 18976.000
43.32607 17926.000
43.34056 16889.000
43.35504 16174.000
43.36952 15151.000
43.38401 13880.000
43.39849 12635.000
43.41297 11523.000
43.42746 10587.000
43.44194 9346.000
43.45642 8887.000
43.47091 8311.000
43.48539 7749.000
43.49987 7351.000
43.51436 7120.000
43.52884 6774.000
43.54332 6758.000
43.55781 6378.000
43.57229 6380.000
43.58677 6425.000
43.60126 6178.000
43.61574 6262.000
43.63022 6189.000
43.64471 6249.000
43.65919 6323.000
43.67367 6198.000
43.68816 6325.000
43.70264 6246.000
43.71712 6209.000
43.73161 6200.000
43.74609 6236.000
43.76057 6267.000
43.77506 6105.000
43.78954 6003.000
43.80402 5955.000
43.81851 5867.000
43.83299 5642.000
43.84747 5723.000
43.86196 5650.000
43.87644 5553.000
43.89092 5568.000
43.90541 5295.000
43.91989 5390.000
43.93437 5245.000
43.94886 5101.000
43.96334 5034.000
43.97782 4876.000
43.99231 4867.000
44.00679 5000.000
44.02127 4850.000
44.03576 4855.000
44.05024 4817.000
44.06472 4736.000
44.07920 4765.000
44.09369 4747.000
44.10817 4672.000
44.12265 4670.000
44.13714 4755.000
44.15162 4574.000
44.16610 4595.000
44.18059 4665.000
44.19507 4743.000
44.20955 4738.000
44.22404 4675.000
44.23852 4620.000
44.25300 4732.000
44.26749 4699.000
44.28197 4573.000
44.29645 4674.000
44.31094 4607.000
44.32542 4634.000
44.33990 4752.000
44.35439 4531.000
44.36887 4772.000
44.38335 4696.000
44.39784 4583.000
44.41232 4637.000
44.42680 4582.000
44.44129 4659.000
44.45577 4680.000
44.47025 4683.000
44.48474 4770.000
44.49922 4735.000
44.51370 4829.000
44.52819 4790.000
44.54267 4777.000
44.55715 4769.000
44.57164 4715.000
44.58612 4689.000
44.60060 4756.000
44.61509 4762.000
44.62957 4858.000
44.64405 4874.000
44.65854 4857.000
44.67302 5016.000
44.68750 5008.000
44.70199 4931.000
44.71647 4950.000
44.73095 4988.000
44.74544 4983.000
44.75992 4956.000
44.77440 4895.000
44.78889 4893.000
44.80337 5034.000
44.81785 4971.000
44.83234 4859.000
44.84682 4997.000
44.86130 4787.000
44.87579 4940.000
44.89027 4713.000
44.90475 4842.000
44.91924 4844.000
44.93372 4883.000
44.94820 4732.000
44.96269 4614.000
44.97717 4681.000
44.99165 4532.000
45.00614 4612.000
45.02062 4632.000
45.03510 4568.000
45.04959 4634.000
45.06407 4420.000
45.07855 4538.000
45.09304 4527.000
45.10752 4536.000
45.12200 4627.000
45.13649 4406.000
45.15097 4624.000
45.16545 4521.000
45.17994 4505.000
45.19442 4482.000
45.20890 4512.000
45.22339 4631.000
45.23787 4536.000
45.25235 4528.000
45.26684 4499.000
45.28132 4478.000
45.29580 4427.000
45.31029 4491.000
45.32477 4522.000
45.33925 4393.000
45.35374 4519.000
45.36822 4443.000
45.38270 4506.000
45.39719 4404.000
45.41167 4359.000
45.42615 4302.000
45.44064 4453.000
45.45512 4409.000
45.46960 4358.000
45.48409 4500.000
45.49857 4469.000
45.51305 4609.000
45.52753 4350.000
45.54202 4485.000
45.55650 4444.000
45.57098 4436.000
45.58547 4461.000
45.59995 4395.000
45.61443 4397.000
45.62892 4459.000
45.64340 4526.000
45.65788 4562.000
45.67237 4496.000
45.68685 4411.000
45.70133 4489.000
45.71582 4469.000
45.73030 4401.000
45.74478 4469.000
45.75927 4399.000
45.77375 4282.000
45.78823 4375.000
45.80272 4510.000
45.81720 4297.000
45.83168 4466.000
45.84617 4406.000
45.86065 4448.000
45.87513 4427.000
45.88962 4417.000
45.90410 4497.000
45.91858 4512.000
45.93307 4397.000
45.94755 4484.000
45.96203 4359.000
45.97652 4456.000
45.99100 4501.000
46.00548 4445.000
46.01997 4349.000
46.03445 4415.000
46.04893 4437.000
46.06342 4432.000
46.07790 4451.000
46.09238 4398.000
46.10687 4392.000
46.12135 4458.000
46.13583 4470.000
46.15032 4433.000
46.16480 4301.000
46.17928 4419.000
46.19377 4408.000
46.20825 4348.000
46.22273 4340.000
46.23722 4516.000
46.25170 4463.000
46.26618 4392.000
46.28067 4414.000
46.29515 4447.000
46.30963 4345.000
46.32412 4498.000
46.33860 4450.000
46.35308 4351.000
46.36757 4368.000
46.38205 4428.000
46.39653 4347.000
46.41102 4458.000
46.42550 4408.000
46.43998 4488.000
46.45447 4456.000
46.46895 4274.000
46.48343 4404.000
46.49792 4398.000
46.51240 4374.000
46.52688 4365.000
46.54137 4451.000
46.55585 4474.000
46.57033 4443.000
46.58482 4287.000
46.59930 4465.000
46.61378 4382.000
46.62827 4411.000
46.64275 4567.000
46.65723 4487.000
46.67172 4224.000
46.68620 4348.000
46.70068 4498.000
46.71517 4289.000
46.72965 4521.000
46.74413 4475.000
46.75862 4426.000
46.77310 4374.000
46.78758 4511.000
46.80207 4453.000
46.81655 4360.000
46.83103 4481.000
46.84552 4393.000
46.86000 4496.000
46.87448 4336.000
46.88897 4369.000
46.90345 4385.000
46.91793 4589.000
46.93242 4433.000
46.94690 4385.000
46.96138 4393.000
46.97586 4397.000
46.99035 4529.000
47.00483 4477.000
47.01931 4572.000
47.03380 4428.000
47.04828 4375.000
47.06276 4381.000
47.07725 4424.000
47.09173 4514.000
47.10621 4577.000
47.12070 4579.000
47.13518 4525.000
47.14966 4528.000
47.16415 4567.000
47.17863 4531.000
47.19311 4471.000
47.20760 4562.000
47.22208 4661.000
47.23656 4707.000
47.25105 4758.000
47.26553 4679.000
47.28001 4636.000
47.29450 4777.000
47.30898 4741.000
47.32346 4867.000
47.33795 4818.000
47.35243 4835.000
47.36691 4810.000
47.38140 4676.000
47.39588 4760.000
47.41036 4753.000
47.42485 4794.000
47.43933 4707.000
47.45381 4685.000
47.46830 4652.000
47.48278 4805.000
47.49726 4712.000
47.51175 4588.000
47.52623 4588.000
47.54071 4567.000
47.55520 4492.000
47.56968 4549.000
47.58416 4546.000
47.59865 4572.000
47.61313 4539.000
47.62761 4428.000
47.64210 4509.000
47.65658 4561.000
47.67106 4536.000
47.68555 4615.000
47.70003 4584.000
47.71451 4546.000
47.72900 4545.000
47.74348 4561.000
47.75796 4423.000
47.77245 4519.000
47.78693 4540.000
47.80141 4423.000
47.81590 4599.000
47.83038 4491.000
47.84486 4545.000
47.85935 4459.000
47.87383 4596.000
47.88831 4438.000
47.90280 4495.000
47.91728 4440.000
47.93176 4471.000
47.94625 4420.000
47.96073 4498.000
47.97521 4453.000
47.98970 4500.000
48.00418 4520.000
48.01866 4446.000
48.03315 4449.000
48.04763 4435.000
48.06211 4438.000
48.07660 4436.000
48.09108 4480.000
48.10556 4398.000
48.12005 4452.000
48.13453 4439.000
48.14901 4363.000
48.16350 4439.000
48.17798 4389.000
48.19246 4445.000
48.20695 4598.000
48.22143 4410.000
48.23591 4485.000
48.25040 4436.000
48.26488 4430.000
48.27936 4500.000
48.29385 4409.000
48.30833 4413.000
48.32281 4488.000
48.33730 4494.000
48.35178 4512.000
48.36626 4380.000
48.38075 4462.000
48.39523 4412.000
48.40971 4460.000
48.42419 4400.000
48.43868 4433.000
48.45316 4449.000
48.46764 4521.000
48.48213 4495.000
48.49661 4343.000
48.51109 4589.000
48.52558 4517.000
48.54006 4514.000
48.55454 4485.000
48.56903 4452.000
48.58351 4450.000
48.59799 4446.000
48.61248 4320.000
48.62696 4423.000
48.64144 4587.000
48.65593 4446.000
48.67041 4390.000
48.68489 4385.000
48.69938 4355.000
48.71386 4450.000
48.72834 4431.000
48.74283 4412.000
48.75731 4460.000
48.77179 4549.000
48.78628 4356.000
48.80076 4480.000
48.81524 4438.000
48.82973 4476.000
48.84421 4431.000
48.85869 4568.000
48.87318 4486.000
48.88766 4415.000
48.90214 4447.000
48.91663 4392.000
48.93111 4475.000
48.94559 4331.000
48.96008 4382.000
48.97456 4411.000
48.98904 4466.000
49.00353 4484.000
49.01801 4539.000
49.03249 4497.000
49.04698 4346.000
49.06146 4436.000
49.07594 4453.000
49.09043 4479.000
49.10491 4409.000
49.11939 4321.000
49.13388 4437.000
49.14836 4532.000
49.16284 4425.000
49.17733 4493.000
49.19181 4481.000
49.20629 4357.000
49.22078 4395.000
49.23526 4630.000
49.24974 4368.000
49.26423 4438.000
49.27871 4400.000
49.29319 4452.000
49.30768 4429.000
49.32216 4374.000
49.33664 4427.000
49.35113 4425.000
49.36561 4411.000
49.38009 4381.000
49.39458 4536.000
49.40906 4466.000
49.42354 4456.000
49.43803 4365.000
49.45251 4456.000
49.46699 4406.000
49.48148 4401.000
49.49596 4340.000
49.51044 4394.000
49.52493 4531.000
49.53941 4403.000
49.55389 4268.000
49.56838 4449.000
49.58286 4349.000
49.59734 4461.000
49.61183 4390.000
49.62631 4349.000
49.64079 4350.000
49.65528 4393.000
49.66976 4427.000
49.68424 4463.000
49.69873 4442.000
49.71321 4516.000
49.72769 4385.000
49.74218 4402.000
49.75666 4398.000
49.77114 4469.000
49.78563 4483.000
49.80011 4445.000
49.81459 4376.000
49.82908 4499.000
49.84356 4326.000
49.85804 4434.000
49.87252 4408.000
49.88701 4470.000
49.90149 4397.000
49.91597 4373.000
49.93046 4432.000
49.94494 4364.000
49.95942 4446.000
49.97391 4418.000
49.98839 4289.000
50.00287 4443.000
50.01736 4377.000
50.03184 4419.000
50.04632 4423.000
50.06081 4442.000
50.07529 4384.000
50.08977 4474.000
50.10426 4292.000
50.11874 4454.000
50.13322 4418.000
50.14771 4507.000
50.16219 4355.000
50.17667 4564.000
50.19116 4529.000
50.20564 4388.000
50.22012 4397.000
50.23461 4571.000
50.24909 4411.000
50.26357 4406.000
50.27806 4480.000
50.29254 4477.000
50.30702 4535.000
50.32151 4386.000
50.33599 4526.000
50.35047 4490.000
50.36496 4491.000
50.37944 4492.000
50.39392 4368.000
50.40841 4456.000
50.42289 4440.000
50.43737 4512.000
50.45186 4374.000
50.46634 4462.000
50.48082 4447.000
50.49531 4424.000
50.50979 4542.000
50.52427 4435.000
50.53876 4563.000
50.55324 4709.000
50.56772 4504.000
50.58221 4671.000
50.59669 4620.000
50.61117 4594.000
50.62566 4506.000
50.64014 4702.000
50.65462 4627.000
50.66911 4723.000
50.68359 4542.000
50.69807 4721.000
50.71256 4719.000
50.72704 4738.000
50.74152 4641.000
50.75601 4740.000
50.77049 4798.000
50.78497 4850.000
50.79946 4767.000
50.81394 4802.000
50.82842 4954.000
50.84291 4971.000
50.85739 4860.000
50.87187 4807.000
50.88636 4971.000
50.90084 4874.000
50.91532 4868.000
50.92981 5055.000
50.94429 5024.000
50.95877 4777.000
50.97326 4991.000
50.98774 4893.000
51.00222 4777.000
51.01671 4853.000
51.03119 4860.000
51.04567 4847.000
51.06016 4824.000
51.07464 4852.000
51.08912 4864.000
51.10361 4682.000
51.11809 4689.000
51.13257 4849.000
51.14706 4586.000
51.16154 4705.000
51.17602 4831.000
51.19051 4895.000
51.20499 4858.000
51.21947 4616.000
51.23396 4721.000
51.24844 4701.000
51.26292 4665.000
51.27741 4690.000
51.29189 4618.000
51.30637 4599.000
51.32085 4571.000
51.33534 4596.000
51.34982 4682.000
51.36430 4651.000
51.37879 4650.000
51.39327 4771.000
51.40775 4513.000
51.42224 4624.000
51.43672 4553.000
51.45120 4561.000
51.46569 4589.000
51.48017 4734.000
51.49465 4615.000
51.50914 4723.000
51.52362 4585.000
51.53810 4683.000
51.55259 4705.000
51.56707 4602.000
51.58155 4729.000
51.59604 4775.000
51.61052 4780.000
51.62500 4768.000
51.63949 4683.000
51.65397 4703.000
51.66845 4781.000
51.68294 4751.000
51.69742 4754.000
51.71190 4739.000
51.72639 4755.000
51.74087 4813.000
51.75535 4777.000
51.76984 4778.000
51.78432 4737.000
51.79880 4629.000
51.81329 4815.000
51.82777 4683.000
51.84225 4664.000
51.85674 4626.000
51.87122 4645.000
51.88570 4611.000
51.90019 4643.000
51.91467 4629.000
51.92915 4725.000
51.94364 4613.000
51.95812 4582.000
51.97260 4683.000
51.98709 4668.000
52.00157 4572.000
52.01605 4514.000
52.03054 4689.000
52.04502 4710.000
52.05950 4632.000
52.07399 4519.000
52.08847 4555.000
52.10295 4579.000
52.11744 4572.000
52.13192 4685.000
52.14640 4567.000
52.16089 4557.000
52.17537 4691.000
52.18985 4644.000
52.20434 4601.000
52.21882 4640.000
52.23330 4590.000
52.24779 4627.000
52.26227 4579.000
52.27675 4619.000
52.29124 4508.000
52.30572 4556.000
52.32020 4648.000
52.33469 4669.000
52.34917 4615.000
52.36365 4684.000
52.37814 4677.000
52.39262 4727.000
52.40710 4603.000
52.42159 4564.000
52.43607 4710.000
52.45055 4792.000
52.46504 4640.000
52.47952 4778.000
52.49400 4729.000
52.50849 4677.000
52.52297 4588.000
52.53745 4675.000
52.55194 4633.000
52.56642 4787.000
52.58090 4743.000
52.59539 4704.000
52.60987 4741.000
52.62435 4809.000
52.63884 4784.000
52.65332 4912.000
52.66780 4765.000
52.68229 4811.000
52.69677 4670.000
52.71125 4775.000
52.72574 4934.000
52.74022 4734.000
52.75470 4920.000
52.76918 4771.000
52.78367 4907.000
52.79815 4886.000
52.81263 4856.000
52.82712 4794.000
52.84160 4716.000
52.85608 4731.000
52.87057 4930.000
52.88505 4850.000
52.89953 4909.000
52.91402 4809.000
52.92850 4854.000
52.94298 5018.000
52.95747 4838.000
52.97195 5005.000
52.98643 4854.000
53.00092 4706.000
53.01540 4877.000
53.02988 4911.000
53.04437 4940.000
53.05885 4945.000
53.07333 4950.000
53.08782 4876.000
53.10230 4916.000
53.11678 5014.000
53.13127 5110.000
53.14575 5132.000
53.16023 5114.000
53.17472 5164.000
53.18920 5162.000
53.20368 5233.000
53.21817 5383.000
53.23265 5467.000
53.24713 5587.000
53.26162 5768.000
53.27610 5840.000
53.29058 5984.000
53.30507 6272.000
53.31955 6335.000
53.33403 6773.000
53.34852 6933.000
53.36300 7322.000
53.37748 7871.000
53.39197 8436.000
53.40645 8934.000
53.42093 9630.000
53.43542 10435.000
53.44990 11443.000
53.46438 12186.000
53.47887 13407.000
53.49335 14904.000
53.50783 15997.000
53.52232 17366.000
53.53680 18498.000
53.55128 19793.000
53.56577 20844.000
53.58025 21712.000
53.59473 22277.000
53.60922 22406.000
53.62370 21740.000
53.63818 20903.000
53.65267 19845.000
53.66715 18809.000
53.68163 17696.000
53.69612 17050.000
53.71060 16156.000
53.72508 15712.000
53.73957 15298.000
53.75405 14323.000
53.76853 13600.000
53.78302 12458.000
53.79750 11408.000
53.81198 10347.000
53.82647 9465.000
53.84095 8729.000
53.85543 7961.000
53.86992 7432.000
53.88440 7060.000
53.89888 6670.000
53.91337 6487.000
53.92785 6210.000
53.94233 6046.000
53.95682 6073.000
53.97130 5878.000
53.98578 5765.000
54.00027 5542.000
54.01475 5568.000
54.02923 5357.000
54.04372 5446.000
54.05820 5280.000
54.07268 5268.000
54.08717 5242.000
54.10165 5046.000
54.11613 5202.000
54.13062 5104.000
54.14510 5048.000
54.15958 4979.000
54.17407 5059.000
54.18855 4968.000
54.20303 4882.000
54.21751 5010.000
54.23200 4883.000
54.24648 4775.000
54.26096 4848.000
54.27545 4763.000
54.28993 4935.000
54.30441 4859.000
54.31890 4928.000
54.33338 4844.000
54.34786 4839.000
54.36235 4793.000
54.37683 4842.000
54.39131 4839.000
54.40580 4822.000
54.42028 4759.000
54.43476 4750.000
54.44925 4785.000
54.46373 4767.000
54.47821 4826.000
54.49270 4632.000
54.50718 4872.000
54.52166 4704.000
54.53615 4739.000
54.55063 4703.000
54.56511 4671.000
54.57960 4685.000
54.59408 4690.000
54.60856 4687.000
54.62305 4679.000
54.63753 4681.000
54.65201 4647.000
54.66650 4682.000
54.68098 4620.000
54.69546 4716.000
54.70995 4591.000
54.72443 4571.000
54.73891 4651.000
54.75340 4706.000
54.76788 4665.000
54.78236 4705.000
54.79685 4731.000
54.81133 4899.000
54.82581 4711.000
54.84030 4731.000
54.85478 4669.000
54.86926 4689.000
54.88375 4622.000
54.89823 4797.000
54.91271 4818.000
54.92720 4787.000
54.94168 4747.000
54.95616 4718.000
54.97065 4819.000
54.98513 4752.000
54.99961 4669.000
55.01410 4803.000
55.02858 4787.000
55.04306 4698.000
55.05755 4724.000
55.07203 4804.000
55.08651 4819.000
55.10100 4877.000
55.11548 4884.000
55.12996 4843.000
55.14445 4733.000
55.15893 4754.000
55.17341 4796.000
55.18790 4708.000
55.20238 4794.000
55.21686 4694.000
55.23135 4822.000
55.24583 4774.000
55.26031 4879.000
55.27480 4957.000
55.28928 4859.000
55.30376 4855.000
55.31825 4792.000
55.33273 4752.000
55.34721 4844.000
55.36170 4824.000
55.37618 4822.000
55.39066 4901.000
55.40515 4825.000
55.41963 4984.000
55.43411 4836.000
55.44860 5002.000
55.46308 4872.000
55.47756 4961.000
55.49205 4985.000
55.50653 5090.000
55.52101 4968.000
55.53550 4807.000
55.54998 5026.000
55.56446 5044.000
55.57895 4983.000
55.59343 5119.000
55.60791 5048.000
55.62240 5184.000
55.63688 5078.000
55.65136 5021.000
55.66584 5131.000
55.68033 5057.000
55.69481 5167.000
55.70929 5182.000
55.72378 5023.000
55.73826 4919.000
55.75274 4983.000
55.76723 5047.000
55.78171 4947.000
55.79619 5050.000
55.81068 4929.000
55.82516 5118.000
55.83964 4917.000
55.85413 4928.000
55.86861 4890.000
55.88309 4974.000
55.89758 4912.000
55.91206 4957.000
55.92654 4959.000
55.94103 4909.000
55.95551 4925.000
55.96999 5005.000
55.98448 4918.000
55.99896 4973.000
56.01344 5008.000
56.02793 5062.000
56.04241 4949.000
56.05689 4903.000
56.07138 5159.000
56.08586 5144.000
56.10034 5010.000
56.11483 5007.000
56.12931 4980.000
56.14379 5062.000
56.15828 5011.000
56.17276 5109.000
56.18724 5049.000
56.20173 4962.000
56.21621 4998.000
56.23069 5004.000
56.24518 4959.000
56.25966 5263.000
56.27414 5012.000
56.28863 5070.000
56.30311 4994.000
56.31759 5052.000
56.33208 5175.000
56.34656 5180.000
56.36104 5098.000
56.37553 5237.000
56.39001 5012.000
56.40449 5208.000
56.41898 5324.000
56.43346 5326.000
56.44794 5259.000
56.46243 5270.000
56.47691 5311.000
56.49139 5443.000
56.50588 5478.000
56.52036 5427.000
56.53484 5528.000
56.54933 5420.000
56.56381 5686.000
56.57829 5689.000
56.59278 5778.000
56.60726 5821.000
56.62174 5865.000
56.63623 6050.000
56.65071 6104.000
56.66519 6250.000
56.67968 6388.000
56.69416 6605.000
56.70864 6773.000
56.72313 7107.000
56.73761 7189.000
56.75209 7547.000
56.76658 7801.000
56.78106 8162.000
56.79554 8315.000
56.81003 8867.000
56.82451 9258.000
56.83899 9851.000
56.85348 10550.000
56.86796 11436.000
56.88244 12154.000
56.89693 13441.000
56.91141 14852.000
56.92589 16372.000
56.94038 17868.000
56.95486 19976.000
56.96934 22349.000
56.98383 24641.000
56.99831 27534.000
57.01279 30288.000
57.02728 33363.000
57.04176 36502.000
57.05624 39491.000
57.07073 42267.000
57.08521 45450.000
57.09969 47567.000
57.11417 49725.000
57.12866 50023.000
57.14314 49195.000
57.15762 47509.000
57.17211 45221.000
57.18659 42568.000
57.20107 39726.000
57.21556 37050.000
57.23004 36034.000
57.24452 34025.000
57.25901 32563.000
57.27349 31126.000
57.28797 30018.000
57.30246 28061.000
57.31694 25363.000
57.33142 23056.000
57.34591 20302.000
57.36039 17737.000
57.37487 15387.000
57.38936 14048.000
57.40384 12633.000
57.41832 11571.000
57.43281 10695.000
57.44729 9882.000
57.46177 9248.000
57.47626 8750.000
57.49074 8373.000
57.50522 8074.000
57.51971 7584.000
57.53419 7367.000
57.54867 7278.000
57.56316 6932.000
57.57764 6826.000
57.59212 6727.000
57.60661 6621.000
57.62109 6275.000
57.63557 6225.000
57.65006 6269.000
57.66454 6220.000
57.67902 5864.000
57.69351 5938.000
57.70799 5899.000
57.72247 5856.000
57.73696 5705.000
57.75144 5776.000
57.76592 5712.000
57.78041 5550.000
57.79489 5469.000
57.80937 5639.000
57.82386 5439.000
57.83834 5518.000
57.85282 5458.000
57.86731 5314.000
57.88179 5441.000
57.89627 5206.000
57.91076 5301.000
57.92524 5290.000
57.93972 5220.000
57.95421 5297.000
57.96869 5137.000
57.98317 5155.000
57.99766 5099.000
58.01214 5045.000
58.02662 5242.000
58.04111 5068.000
58.05559 5208.000
58.07007 5084.000
58.08456 5088.000
58.09904 5101.000
58.11352 4998.000
58.12801 5100.000
58.14249 5001.000
58.15697 5030.000
58.17146 5049.000
58.18594 5040.000
58.20042 4994.000
58.21491 4977.000
58.22939 4940.000
58.24387 4961.000
58.25836 4924.000
58.27284 5004.000
58.28732 4880.000
58.30181 4930.000
58.31629 4810.000
58.33077 4863.000
58.34526 4846.000
58.35974 4914.000
58.37422 4894.000
58.38871 4980.000
58.40319 4866.000
58.41767 4744.000
58.43216 4959.000
58.44664 4866.000
58.46112 4919.000
58.47561 4917.000
58.49009 4943.000
58.50457 4872.000
58.51906 4945.000
58.53354 4831.000
58.54802 4917.000
58.56250 4831.000
58.57699 4804.000
58.59147 4952.000
58.60595 4860.000
58.62044 4952.000
58.63492 4918.000
58.64940 4742.000
58.66389 4814.000
58.67837 4809.000
58.69285 4788.000
58.70734 4887.000
58.72182 4722.000
58.73630 4719.000
58.75079 4725.000
58.76527 4727.000
58.77975 4814.000
58.79424 4796.000
58.80872 4857.000
58.82320 4705.000
58.83769 4870.000
58.85217 4719.000
58.86665 4663.000
58.88114 4787.000
58.89562 4689.000
58.91010 4720.000
58.92459 4818.000
58.93907 4784.000
58.95355 4731.000
58.96804 4734.000
58.98252 4747.000
58.99700 4662.000
59.01149 4683.000
59.02597 4798.000
59.04045 4679.000
59.05494 4588.000
59.06942 4747.000
59.08390 4752.000
59.09839 4723.000
59.11287 4754.000
59.12735 4869.000
59.14184 4714.000
59.15632 4779.000
59.17080 4698.000
59.18529 4660.000
59.19977 4653.000
59.21425 4701.000
59.22874 4733.000
59.24322 4671.000
59.25770 4675.000
59.27219 4713.000
59.28667 4688.000
59.30115 4762.000
59.31564 4673.000
59.33012 4809.000
59.34460 4578.000
59.35909 4777.000
59.37357 4791.000
59.38805 4726.000
59.40254 4631.000
59.41702 4651.000
59.43150 4774.000
59.44599 4724.000
59.46047 4836.000
59.47495 4646.000
59.48944 4766.000
59.50392 4621.000
59.51840 4644.000
59.53289 4674.000
59.54737 4730.000
59.56185 4655.000
59.57634 4748.000
59.59082 4777.000
59.60530 4766.000
59.61979 4662.000
59.63427 4707.000
59.64875 4676.000
59.66324 4717.000
59.67772 4686.000
59.69220 4546.000
59.70669 4564.000
59.72117 4805.000
59.73565 4643.000
59.75014 4758.000
59.76462 4681.000
59.77910 4643.000
59.79359 4787.000
59.80807 4584.000
59.82255 4726.000
59.83704 4721.000
59.85152 4693.000
59.86600 4740.000
59.88049 4698.000
59.89497 4651.000
59.90945 4684.000
59.92394 4898.000
59.93842 4607.000
59.95290 4625.000
59.96739 4635.000
59.98187 4693.000
59.99635 4689.000
60.01083 4758.000
60.02532 4690.000
60.03980 4757.000
60.05428 4691.000
60.06877 4658.000
60.08325 4744.000
60.09773 4725.000
60.11222 4652.000
60.12670 4744.000
60.14118 4715.000
60.15567 4592.000
60.17015 4749.000
60.18463 4539.000
60.19912 4585.000
60.21360 4765.000
60.22808 4695.000
60.24257 4891.000
60.25705 4643.000
60.27153 4697.000
60.28602 4658.000
60.30050 4858.000
60.31498 4828.000
60.32947 4850.000
60.34395 4870.000
60.35843 4810.000
60.37292 4768.000
60.38740 4788.000
60.40188 4793.000
60.41637 4943.000
60.43085 4800.000
60.44533 4742.000
60.45982 4819.000
60.47430 4842.000
60.48878 4810.000
60.50327 4906.000
60.51775 4964.000
60.53223 4849.000
60.54672 4923.000
60.56120 4879.000
60.57568 4912.000
60.59017 4808.000
60.60465 4764.000
60.61913 4799.000
60.63362 4729.000
60.64810 4917.000
60.66258 4912.000
60.67707 4749.000
60.69155 4918.000
60.70603 4889.000
60.72052 4891.000
60.73500 5053.000
60.74948 4844.000
60.76397 4974.000
60.77845 4963.000
60.79293 5040.000
60.80742 4992.000
60.82190 4845.000
60.83638 5059.000
60.85087 4985.000
60.86535 4927.000
60.87983 4915.000
60.89432 4899.000
60.90880 4923.000
60.92328 5122.000
60.93777 4960.000
60.95225 5020.000
60.96673 4937.000
60.98122 4941.000
60.99570 5005.000
61.01018 4928.000
61.02467 4936.000
61.03915 4932.000
61.05363 4982.000
61.06812 5013.000
61.08260 4929.000
61.09708 4968.000
61.11157 4996.000
61.12605 4890.000
61.14053 4952.000
61.15502 4919.000
61.16950 5018.000
61.18398 5050.000
61.19847 5022.000
61.21295 4900.000
61.22743 4980.000
61.24192 4931.000
61.25640 4794.000
61.27088 5063.000
61.28537 5125.000
61.29985 5042.000
61.31433 4813.000
61.32882 5085.000
61.34330 5045.000
61.35778 5013.000
61.37227 5004.000
61.38675 4994.000
61.40123 5029.000
61.41572 4864.000
61.43020 4834.000
61.44468 5038.000
61.45916 5046.000
61.47365 4882.000
61.48813 4962.000
61.50261 4942.000
61.51710 4907.000
61.53158 5039.000
61.54606 5063.000
61.56055 5037.000
61.57503 4981.000
61.58951 5038.000
61.60400 4925.000
61.61848 4941.000
61.63296 5086.000
61.64745 4992.000
61.66193 5034.000
61.67641 4939.000
61.69090 5032.000
61.70538 5002.000
61.71986 5078.000
61.73435 5244.000
61.74883 5056.000
61.76331 5061.000
61.77780 5178.000
61.79228 5008.000
61.80676 5070.000
61.82125 5087.000
61.83573 5046.000
61.85021 5115.000
61.86470 5183.000
61.87918 5273.000
61.89366 5322.000
61.90815 5115.000
61.92263 5211.000
61.93711 5285.000
61.95160 5328.000
61.96608 5437.000
61.98056 5300.000
61.99505 5301.000
62.00953 5309.000
62.02401 5408.000
62.03850 5549.000
62.05298 5395.000
62.06746 5641.000
62.08195 5448.000
62.09643 5517.000
62.11091 5655.000
62.12540 5794.000
62.13988 5775.000
62.15436 5812.000
62.16885 5917.000
62.18333 6013.000
62.19781 6066.000
62.21230 6127.000
62.22678 6362.000
62.24126 6515.000
62.25575 6760.000
62.27023 6865.000
62.28471 7148.000
62.29920 7404.000
62.31368 7580.000
62.32816 7972.000
62.34265 8244.000
62.35713 8720.000
62.37161 8907.000
62.38610 9584.000
62.40058 10077.000
62.41506 10619.000
62.42955 11410.000
62.44403 12198.000
62.45851 13310.000
62.47300 14631.000
62.48748 16028.000
62.50196 17344.000
62.51645 19435.000
62.53093 21845.000
62.54541 24032.000
62.55990 27568.000
62.57438 30203.000
62.58886 33491.000
62.60335 37389.000
62.61783 40589.000
62.63231 44066.000
62.64680 46665.000
62.66128 49482.000
62.67576 52639.000
62.69025 54386.000
62.70473 55472.000
62.71921 55283.000
62.73370 54201.000
62.74818 52211.000
62.76266 49163.000
62.77715 46042.000
62.79163 42974.000
62.80611 40855.000
62.82060 39348.000
62.83508 37609.000
62.84956 36546.000
62.86405 35192.000
62.87853 33866.000
62.89301 32322.000
62.90749 30056.000
62.92198 27395.000
62.93646 24706.000
62.95094 22080.000
62.96543 19614.000
62.97991 17334.000
62.99439 15176.000
63.00888 14065.000
63.02336 12744.000
63.03784 11533.000
63.05233 10892.000
63.06681 9982.000
63.08129 9407.000
63.09578 8968.000
63.11026 8651.000
63.12474 8193.000
63.13923 7800.000
63.15371 7542.000
63.16819 7449.000
63.18268 7170.000
63.19716 6993.000
63.21164 6722.000
63.22613 6652.000
63.24061 6427.000
63.25509 6438.000
63.26958 6148.000
63.28406 6310.000
63.29854 6124.000
63.31303 5978.000
63.32751 5952.000
63.34199 5981.000
63.35648 5805.000
63.37096 5769.000
63.38544 5823.000
63.39993 5548.000
63.41441 5565.000
63.42889 5510.000
63.44338 5538.000
63.45786 5552.000
63.47234 5414.000
63.48683 5491.000
63.50131 5369.000
63.51579 5279.000
63.53028 5292.000
63.54476 5296.000
63.55924 5284.000
63.57373 5348.000
63.58821 5189.000
63.60269 5261.000
63.61718 5238.000
63.63166 5098.000
63.64614 5120.000
63.66063 5118.000
63.67511 5046.000
63.68959 5191.000
63.70408 5077.000
63.71856 5215.000
63.73304 5073.000
63.74753 5015.000
63.76201 5168.000
63.77649 5057.000
63.79098 5089.000
63.80546 5057.000
63.81994 5030.000
63.83443 4929.000
63.84891 4997.000
63.86339 5009.000
63.87788 5012.000
63.89236 4834.000
63.90684 4909.000
63.92133 4924.000
63.93581 4956.000
63.95029 4983.000
63.96478 5043.000
63.97926 4945.000
63.99374 4915.000
64.00823 4807.000
64.02271 4841.000
64.03719 4779.000
64.05168 4852.000
64.06616 4790.000
64.08064 4880.000
64.09513 4903.000
64.10961 4787.000
64.12409 4808.000
64.13858 4884.000
64.15306 4772.000
64.16754 4766.000
64.18203 4791.000
64.19651 4669.000
64.21099 4810.000
64.22548 4869.000
64.23996 4779.000
64.25444 4763.000
64.26893 4699.000
64.28341 4708.000
64.29789 4751.000
64.31238 4687.000
64.32686 4797.000
64.34134 4580.000
64.35582 4774.000
64.37031 4870.000
64.38479 4690.000
64.39927 4688.000
64.41376 4692.000
64.42824 4827.000
64.44272 4851.000
64.45721 4758.000
64.47169 4841.000
64.48617 4743.000
64.50066 4769.000
64.51514 4761.000
64.52962 4833.000
64.54411 4582.000
64.55859 4650.000
64.57307 4711.000
64.58756 4859.000
64.60204 4668.000
64.61652 4678.000
64.63101 4724.000
64.64549 4804.000
64.65997 4766.000
64.67446 4721.000
64.68894 4825.000
64.70342 4646.000
64.71791 4635.000
64.73239 4658.000
64.74687 4699.000
64.76136 4692.000
64.77584 4840.000
64.79032 4741.000
64.80481 4531.000
64.81929 4685.000
64.83377 4696.000
64.84826 4764.000
64.86274 4717.000
64.87722 4820.000
64.89171 4788.000
64.90619 4872.000
64.92067 4674.000
64.93516 4838.000
64.94964 4733.000
64.96412 4638.000
64.97861 4720.000
64.99309 4771.000
65.00757 4684.000
65.02206 4681.000
65.03654 4820.000
65.05102 4835.000
65.06551 4778.000
65.07999 4711.000
65.09447 4748.000
65.10896 4719.000
65.12344 4848.000
65.13792 4764.000
65.15241 4712.000
65.16689 4666.000
65.18137 4674.000
65.19586 4812.000
65.21034 4666.000
65.22482 4689.000
65.23931 4680.000
65.25379 4569.000
65.26827 4571.000
65.28276 4689.000
65.29724 4800.000
65.31172 4736.000
65.32621 4753.000
65.34069 4755.000
65.35517 4660.000
65.36966 4705.000
65.38414 4766.000
65.39862 4637.000
65.41311 4664.000
65.42759 4606.000
65.44207 4700.000
65.45656 4585.000
65.47104 4648.000
65.48552 4616.000
65.50001 4750.000
65.51449 4623.000
65.52897 4781.000
65.54346 4731.000
65.55794 4732.000
65.57242 4576.000
65.58691 4823.000
65.60139 4850.000
65.61587 4557.000
65.63036 4573.000
65.64484 4689.000
65.65932 4668.000
65.67381 4673.000
65.68829 4569.000
65.70277 4728.000
65.71726 4730.000
65.73174 4751.000
65.74622 4708.000
65.76071 4800.000
65.77519 4652.000
65.78967 4641.000
65.80415 4680.000
65.81864 4811.000
65.83312 4870.000
65.84760 4757.000
65.86209 4887.000
65.87657 4726.000
65.89105 4807.000
65.90554 4817.000
65.92002 4784.000
65.93450 4903.000
65.94899 4901.000
65.96347 4911.000
65.97795 4775.000
65.99244 4849.000
66.00692 4723.000
66.02140 4677.000
66.03589 4856.000
66.05037 4778.000
66.06485 4673.000
66.07934 4660.000
66.09382 4588.000
66.10830 4700.000
66.12279 4734.000
66.13727 4691.000
66.15175 4585.000
66.16624 4746.000
66.18072 4704.000
66.19520 4570.000
66.20969 4694.000
66.22417 4737.000
66.23865 4510.000
66.25314 4672.000
66.26762 4645.000
66.28210 4588.000
66.29659 4556.000
66.31107 4557.000
66.32555 4544.000
66.34004 4520.000
66.35452 4499.000
66.36900 4560.000
66.38349 4730.000
66.39797 4572.000
66.41245 4608.000
66.42694 4627.000
66.44142 4573.000
66.45590 4538.000
66.47039 4599.000
66.48487 4510.000
66.49935 4682.000
66.51384 4689.000
66.52832 4566.000
66.54280 4617.000
66.55729 4409.000
66.57177 4529.000
66.58625 4501.000
66.60074 4658.000
66.61522 4475.000
66.62970 4639.000
66.64419 4570.000
66.65867 4431.000
66.67315 4542.000
66.68764 4653.000
66.70212 4491.000
66.71660 4523.000
66.73109 4503.000
66.74557 4441.000
66.76005 4602.000
66.77454 4368.000
66.78902 4699.000
66.80350 4495.000
66.81799 4502.000
66.83247 4625.000
66.84695 4486.000
66.86144 4457.000
66.87592 4614.000
66.89040 4597.000
66.90489 4545.000
66.91937 4468.000
66.93385 4540.000
66.94834 4508.000
66.96282 4494.000
66.97730 4616.000
66.99179 4446.000
67.00627 4431.000
67.02075 4510.000
67.03524 4576.000
67.04972 4511.000
67.06420 4486.000
67.07869 4430.000
67.09317 4509.000
67.10765 4475.000
67.12214 4527.000
67.13662 4567.000
67.15110 4478.000
67.16559 4619.000
67.18007 4498.000
67.19455 4661.000
67.20904 4710.000
67.22352 4574.000
67.23800 4592.000
67.25248 4544.000
67.26697 4610.000
67.28145 4593.000
67.29593 4474.000
67.31042 4635.000
67.32490 4513.000
67.33938 4574.000
67.35387 4562.000
67.36835 4524.000
67.38283 4504.000
67.39732 4333.000
67.41180 4533.000
67.42628 4528.000
67.44077 4510.000
67.45525 4532.000
67.46973 4517.000
67.48422 4578.000
67.49870 4525.000
67.51318 4542.000
67.52767 4452.000
67.54215 4481.000
67.55663 4552.000
67.57112 4547.000
67.58560 4538.000
67.60008 4591.000
67.61457 4551.000
67.62905 4493.000
67.64353 4460.000
67.65802 4554.000
67.67250 4523.000
67.68698 4636.000
67.70147 4465.000
67.71595 4519.000
67.73043 4643.000
67.74492 4609.000
67.75940 4533.000
67.77388 4479.000
67.78837 4528.000
67.80285 4531.000
67.81733 4590.000
67.83182 4512.000
67.84630 4476.000
67.86078 4554.000
67.87527 4588.000
67.88975 4433.000
67.90423 4519.000
67.91872 4635.000
67.93320 4561.000
67.94768 4560.000
67.96217 4618.000
67.97665 4710.000
67.99113 4560.000
68.00562 4645.000
68.02010 4461.000
68.03458 4611.000
68.04907 4555.000
68.06355 4548.000
68.07803 4569.000
68.09252 4679.000
68.10700 4501.000
68.12148 4670.000
68.13597 4706.000
68.15045 4686.000
68.16493 4543.000
68.17942 4490.000
68.19390 4490.000
68.20838 4702.000
68.22287 4532.000
68.23735 4498.000
68.25183 4521.000
68.26632 4583.000
68.28080 4616.000
68.29528 4628.000
68.30977 4537.000
68.32425 4608.000
68.33873 4561.000
68.35322 4649.000
68.36770 4446.000
68.38218 4489.000
68.39667 4650.000
68.41115 4587.000
68.42563 4510.000
68.44012 4458.000
68.45460 4563.000
68.46908 4485.000
68.48357 4450.000
68.49805 4537.000
68.51253 4423.000
68.52702 4445.000
68.54150 4459.000
68.55598 4537.000
68.57047 4543.000
68.58495 4430.000
68.59943 4395.000
68.61392 4603.000
68.62840 4557.000
68.64288 4585.000
68.65737 4627.000
68.67185 4550.000
68.68633 4437.000
68.70081 4569.000
68.71530 4563.000
68.72978 4420.000
68.74426 4505.000
68.75875 4628.000
68.77323 4467.000
68.78771 4602.000
68.80220 4347.000
68.81668 4431.000
68.83116 4523.000
68.84565 4376.000
68.86013 4607.000
68.87461 4486.000
68.88910 4449.000
68.90358 4458.000
68.91806 4547.000
68.93255 4481.000
68.94703 4548.000
68.96151 4584.000
68.97600 4581.000
68.99048 4509.000
69.00496 4533.000
69.01945 4487.000
69.03393 4553.000
69.04841 4640.000
69.06290 4561.000
69.07738 4640.000
69.09186 4585.000
69.10635 4632.000
69.12083 4571.000
69.13531 4399.000
69.14980 4648.000
69.16428 4552.000
69.17876 4559.000
69.19325 4610.000
69.20773 4448.000
69.22221 4645.000
69.23670 4554.000
69.25118 4649.000
69.26566 4662.000
69.28015 4667.000
69.29463 4564.000
69.30911 4561.000
69.32360 4581.000
69.33808 4551.000
69.35256 4524.000
69.36705 4429.000
69.38153 4624.000
69.39601 4504.000
69.41050 4670.000
69.42498 4608.000
69.43946 4499.000
69.45395 4508.000
69.46843 4565.000
69.48291 4404.000
69.49740 4592.000
69.51188 4502.000
69.52636 4428.000
69.54085 4443.000
69.55533 4563.000
69.56981 4526.000
69.58430 4533.000
69.59878 4582.000
69.61326 4517.000
69.62775 4413.000
69.64223 4503.000
69.65671 4592.000
69.67120 4551.000
69.68568 4601.000
69.70016 4728.000
69.71465 4558.000
69.72913 4575.000
69.74361 4458.000
69.75810 4602.000
69.77258 4456.000
69.78706 4414.000
69.80155 4604.000
69.81603 4515.000
69.83051 4548.000
69.84500 4416.000
69.85948 4540.000
69.87396 4504.000
69.88845 4528.000
69.90293 4505.000
69.91741 4542.000
69.93190 4531.000
69.94638 4394.000
69.96086 4541.000
69.97535 4398.000
69.98983 4535.000
70.00431 4579.000
