5.000000 3242.000000
5.019750 3268.000000
5.039500 3213.000000
5.059250 3275.000000
5.079000 3197.000000
5.098750 3281.000000
5.118500 3379.000000
5.138250 3213.000000
5.158000 3210.000000
5.177750 3127.000000
5.197500 3215.000000
5.217250 3113.000000
5.237000 3170.000000
5.256750 3213.000000
5.276500 3254.000000
5.296250 3243.000000
5.316000 3149.000000
5.335750 3218.000000
5.355500 3122.000000
5.375250 3201.000000
5.395000 3218.000000
5.414750 3175.000000
5.434500 3118.000000
5.454250 3101.000000
5.474000 3142.000000
5.493750 3193.000000
5.513500 3142.000000
5.533250 3378.000000
5.553000 3534.000000
5.572750 3400.000000
5.592500 3593.000000
5.612250 3646.000000
5.632000 3716.000000
5.651750 3656.000000
5.671500 3698.000000
5.691250 3619.000000
5.711000 3641.000000
5.730750 3444.000000
5.750500 3296.000000
5.770250 3230.000000
5.790000 3238.000000
5.809750 3090.000000
5.829500 3107.000000
5.849250 3169.000000
5.869000 2976.000000
5.888750 3070.000000
5.908500 2968.000000
5.928250 2888.000000
5.948000 2840.000000
5.967750 2836.000000
5.987500 2947.000000
6.007240 2829.000000
6.026990 2841.000000
6.046740 2869.000000
6.066490 2831.000000
6.086240 2794.000000
6.105990 2696.000000
6.125740 2794.000000
6.145490 2802.000000
6.165240 2725.000000
6.184990 2739.000000
6.204740 2752.000000
6.224490 2748.000000
6.244240 2687.000000
6.263990 2689.000000
6.283740 2705.000000
6.303490 2638.000000
6.323240 2617.000000
6.342990 2663.000000
6.362740 2632.000000
6.382490 2639.000000
6.402240 2614.000000
6.421990 2789.000000
6.441740 2622.000000
6.461490 2605.000000
6.481240 2614.000000
6.500990 2689.000000
6.520740 2580.000000
6.540490 2509.000000
6.560240 2587.000000
6.579990 2664.000000
6.599740 2569.000000
6.619490 2558.000000
6.639240 2498.000000
6.658990 2658.000000
6.678740 2658.000000
6.698490 2536.000000
6.718240 2552.000000
6.737990 2600.000000
6.757740 2551.000000
6.777490 2544.000000
6.797240 2467.000000
6.816990 2598.000000
6.836740 2649.000000
6.856490 2614.000000
6.876240 2385.000000
6.895990 2410.000000
6.915740 2477.000000
6.935490 2490.000000
6.955240 2617.000000
6.974990 2449.000000
6.994740 2363.000000
7.014490 2361.000000
7.034240 2418.000000
7.053990 2400.000000
7.073740 2462.000000
7.093490 2347.000000
7.113240 2486.000000
7.132990 2473.000000
7.152740 2398.000000
7.172490 2421.000000
7.192240 2408.000000
7.211990 2499.000000
7.231740 2423.000000
7.251490 2492.000000
7.271240 2402.000000
7.290990 2384.000000
7.310740 2421.000000
7.330490 2482.000000
7.350240 2448.000000
7.369990 2416.000000
7.389740 2447.000000
7.409490 2427.000000
7.429240 2499.000000
7.448990 2479.000000
7.468740 2414.000000
7.488490 2401.000000
7.508240 2370.000000
7.527990 2441.000000
7.547740 2468.000000
7.567490 2392.000000
7.587240 2456.000000
7.606990 2416.000000
7.626740 2373.000000
7.646490 2344.000000
7.666240 2293.000000
7.685990 2452.000000
7.705740 2402.000000
7.725490 2421.000000
7.745240 2296.000000
7.764990 2326.000000
7.784740 2307.000000
7.804490 2361.000000
7.824240 2266.000000
7.843990 2315.000000
7.863740 2300.000000
7.883490 2370.000000
7.903240 2268.000000
7.922990 2246.000000
7.942740 2239.000000
7.962490 2317.000000
7.982230 2381.000000
8.001980 2334.000000
8.021730 2394.000000
8.041480 2274.000000
8.061230 2222.000000
8.080980 2331.000000
8.100730 2221.000000
8.120480 2265.000000
8.140230 2282.000000
8.159980 2276.000000
8.179730 2283.000000
8.199480 2296.000000
8.219230 2264.000000
8.238980 2223.000000
8.258730 2271.000000
8.278480 2191.000000
8.298230 2241.000000
8.317980 2221.000000
8.337730 2271.000000
8.357480 2222.000000
8.377230 2189.000000
8.396980 2228.000000
8.416730 2217.000000
8.436480 2226.000000
8.456230 2138.000000
8.475980 2141.000000
8.495730 2209.000000
8.515480 2178.000000
8.535230 2189.000000
8.554980 2208.000000
8.574730 2194.000000
8.594480 2260.000000
8.614230 2225.000000
8.633980 2194.000000
8.653730 2210.000000
8.673480 2169.000000
8.693230 2192.000000
8.712980 2168.000000
8.732730 2181.000000
8.752480 2243.000000
8.772230 2178.000000
8.791980 2159.000000
8.811730 2250.000000
8.831480 2205.000000
8.851230 2094.000000
8.870980 2148.000000
8.890730 2210.000000
8.910480 2170.000000
8.930230 2058.000000
8.949980 2231.000000
8.969730 2184.000000
8.989480 2170.000000
9.009230 2235.000000
9.028980 2185.000000
9.048730 2164.000000
9.068480 2056.000000
9.088230 2164.000000
9.107980 2151.000000
9.127730 2222.000000
9.147480 2264.000000
9.167230 2149.000000
9.186980 2263.000000
9.206730 2233.000000
9.226480 2241.000000
9.246230 2264.000000
9.265980 2284.000000
9.285730 2201.000000
9.305480 2279.000000
9.325230 2257.000000
9.344980 2282.000000
9.364730 2230.000000
9.384480 2301.000000
9.404230 2258.000000
9.423980 2228.000000
9.443730 2298.000000
9.463480 2254.000000
9.483230 2154.000000
9.502980 2263.000000
9.522730 2095.000000
9.542480 2119.000000
9.562230 2118.000000
9.581980 2137.000000
9.601730 2132.000000
9.621480 2166.000000
9.641230 2188.000000
9.660980 2195.000000
9.680730 2217.000000
9.700480 2205.000000
9.720230 2176.000000
9.739980 2239.000000
9.759730 2177.000000
9.779480 2203.000000
9.799230 2243.000000
9.818980 2239.000000
9.838730 2214.000000
9.858480 2208.000000
9.878230 2162.000000
9.897980 2244.000000
9.917730 2316.000000
9.937480 2258.000000
9.957220 2416.000000
9.976970 2453.000000
9.996720 2638.000000
10.016470 2653.000000
10.036220 2902.000000
10.055970 3149.000000
10.075720 3412.000000
10.095470 3628.000000
10.115220 3862.000000
10.134970 4025.000000
10.154720 3773.000000
10.174470 3460.000000
10.194220 3119.000000
10.213970 2838.000000
10.233720 2636.000000
10.253470 2543.000000
10.273220 2391.000000
10.292970 2344.000000
10.312720 2243.000000
10.332470 2229.000000
10.352220 2166.000000
10.371970 2150.000000
10.391720 2208.000000
10.411470 2102.000000
10.431220 2009.000000
10.450970 2076.000000
10.470720 2080.000000
10.490470 2087.000000
10.510220 2063.000000
10.529970 2029.000000
10.549720 2126.000000
10.569470 2143.000000
10.589220 2063.000000
10.608970 2050.000000
10.628720 2111.000000
10.648470 1984.000000
10.668220 2039.000000
10.687970 2086.000000
10.707720 2097.000000
10.727470 2046.000000
10.747220 1959.000000
10.766970 2032.000000
10.786720 2038.000000
10.806470 1991.000000
10.826220 2032.000000
10.845970 2098.000000
10.865720 2026.000000
10.885470 2000.000000
10.905220 1976.000000
10.924970 1995.000000
10.944720 1989.000000
10.964470 2048.000000
10.984220 2028.000000
11.003970 2094.000000
11.023720 2024.000000
11.043470 2055.000000
11.063220 2062.000000
11.082970 2114.000000
11.102720 2179.000000
11.122470 2168.000000
11.142220 2142.000000
11.161970 2263.000000
11.181720 2278.000000
11.201470 2360.000000
11.221220 2385.000000
11.240970 2579.000000
11.260720 2674.000000
11.280470 2787.000000
11.300220 2845.000000
11.319970 2858.000000
11.339720 2687.000000
11.359470 2656.000000
11.379220 2577.000000
11.398970 2250.000000
11.418720 2274.000000
11.438470 2245.000000
11.458220 2110.000000
11.477970 2090.000000
11.497720 2018.000000
11.517470 1960.000000
11.537220 2041.000000
11.556970 2008.000000
11.576720 2050.000000
11.596470 2051.000000
11.616220 2033.000000
11.635970 2070.000000
11.655720 2003.000000
11.675470 2039.000000
11.695220 1951.000000
11.714970 1992.000000
11.734720 2045.000000
11.754470 2002.000000
11.774220 2069.000000
11.793970 2010.000000
11.813720 2053.000000
11.833470 2021.000000
11.853220 1969.000000
11.872970 1997.000000
11.892720 2019.000000
11.912470 2007.000000
11.932210 1985.000000
11.951960 1964.000000
11.971710 2077.000000
11.991460 2032.000000
12.011210 2026.000000
12.030960 2121.000000
12.050710 2016.000000
12.070460 2110.000000
12.090210 2088.000000
12.109960 2077.000000
12.129710 1959.000000
12.149460 2048.000000
12.169210 2082.000000
12.188960 1988.000000
12.208710 2093.000000
12.228460 2008.000000
12.248210 1968.000000
12.267960 1997.000000
12.287710 2007.000000
12.307460 2027.000000
12.327210 2028.000000
12.346960 2005.000000
12.366710 2045.000000
12.386460 2025.000000
12.406210 2021.000000
12.425960 2037.000000
12.445710 2004.000000
12.465460 1945.000000
12.485210 2031.000000
12.504960 2020.000000
12.524710 2012.000000
12.544460 1992.000000
12.564210 2022.000000
12.583960 1930.000000
12.603710 2021.000000
12.623460 1943.000000
12.643210 2059.000000
12.662960 1978.000000
12.682710 2002.000000
12.702460 2042.000000
12.722210 2027.000000
12.741960 1946.000000
12.761710 1966.000000
12.781460 2027.000000
12.801210 2080.000000
12.820960 2023.000000
12.840710 2024.000000
12.860460 2020.000000
12.880210 1975.000000
12.899960 1979.000000
12.919710 2058.000000
12.939460 1931.000000
12.959210 1990.000000
12.978960 2030.000000
12.998710 1967.000000
13.018460 1933.000000
13.038210 2018.000000
13.057960 1956.000000
13.077710 1945.000000
13.097460 2069.000000
13.117210 2094.000000
13.136960 2073.000000
13.156710 1940.000000
13.176460 1987.000000
13.196210 1991.000000
13.215960 1941.000000
13.235710 1984.000000
13.255460 1972.000000
13.275210 1943.000000
13.294960 1973.000000
13.314710 1911.000000
13.334460 1899.000000
13.354210 1986.000000
13.373960 1936.000000
13.393710 1955.000000
13.413460 1929.000000
13.433210 1947.000000
13.452960 1985.000000
13.472710 1967.000000
13.492460 1884.000000
13.512210 1959.000000
13.531960 1943.000000
13.551710 1947.000000
13.571460 1928.000000
13.591210 1989.000000
13.610960 1921.000000
13.630710 1935.000000
13.650460 1916.000000
13.670210 1938.000000
13.689960 1914.000000
13.709710 1981.000000
13.729460 1919.000000
13.749210 1967.000000
13.768960 1955.000000
13.788710 1960.000000
13.808460 1912.000000
13.828210 1888.000000
13.847960 1973.000000
13.867710 2043.000000
13.887460 1986.000000
13.907200 1866.000000
13.926950 1954.000000
13.946700 1933.000000
13.966450 2033.000000
13.986200 1988.000000
14.005950 1994.000000
14.025700 1993.000000
14.045450 1987.000000
14.065200 2039.000000
14.084950 1981.000000
14.104700 1989.000000
14.124450 1976.000000
14.144200 1971.000000
14.163950 2000.000000
14.183700 1967.000000
14.203450 1945.000000
14.223200 1923.000000
14.242950 1899.000000
14.262700 1933.000000
14.282450 1920.000000
14.302200 1915.000000
14.321950 1965.000000
14.341700 1931.000000
14.361450 1955.000000
14.381200 1896.000000
14.400950 1896.000000
14.420700 1952.000000
14.440450 1923.000000
14.460200 1928.000000
14.479950 1922.000000
14.499700 1928.000000
14.519450 1914.000000
14.539200 2005.000000
14.558950 1956.000000
14.578700 1962.000000
14.598450 1994.000000
14.618200 1995.000000
14.637950 1938.000000
14.657700 1961.000000
14.677450 1922.000000
14.697200 1906.000000
14.716950 1877.000000
14.736700 1940.000000
14.756450 1886.000000
14.776200 1950.000000
14.795950 1926.000000
14.815700 1921.000000
14.835450 1879.000000
14.855200 1912.000000
14.874950 1969.000000
14.894700 1874.000000
14.914450 1981.000000
14.934200 1949.000000
14.953950 1904.000000
14.973700 1860.000000
14.993450 1873.000000
15.013200 1947.000000
15.032950 1922.000000
15.052700 1937.000000
15.072450 1913.000000
15.092200 1878.000000
15.111950 1940.000000
15.131700 2003.000000
15.151450 1912.000000
15.171200 1992.000000
15.190950 1907.000000
15.210700 1907.000000
15.230450 1997.000000
15.250200 1964.000000
15.269950 2010.000000
15.289700 2008.000000
15.309450 1980.000000
15.329200 2011.000000
15.348950 2036.000000
15.368700 1967.000000
15.388450 2026.000000
15.408200 1940.000000
15.427950 1930.000000
15.447700 1963.000000
15.467450 1866.000000
15.487200 1953.000000
15.506950 1937.000000
15.526700 1947.000000
15.546450 1911.000000
15.566200 1947.000000
15.585950 1893.000000
15.605700 1874.000000
15.625450 1976.000000
15.645200 1888.000000
15.664950 1870.000000
15.684700 1951.000000
15.704450 1882.000000
15.724200 1961.000000
15.743950 1927.000000
15.763700 1877.000000
15.783450 1885.000000
15.803200 1977.000000
15.822950 1952.000000
15.842700 1922.000000
15.862450 1950.000000
15.882190 1989.000000
15.901940 2008.000000
15.921690 1946.000000
15.941440 1974.000000
15.961190 1933.000000
15.980940 1911.000000
16.000690 1883.000000
16.020440 1937.000000
16.040190 1882.000000
16.059940 1955.000000
16.079690 1996.000000
16.099440 1919.000000
16.119190 1906.000000
16.138940 1903.000000
16.158690 1937.000000
16.178440 1934.000000
16.198190 1964.000000
16.217940 1988.000000
16.237690 1931.000000
16.257440 1946.000000
16.277190 1901.000000
16.296940 1907.000000
16.316690 1877.000000
16.336440 1910.000000
16.356190 2022.000000
16.375940 1945.000000
16.395690 1933.000000
16.415440 1930.000000
16.435190 1922.000000
16.454940 2012.000000
16.474690 2001.000000
16.494440 1958.000000
16.514190 1897.000000
16.533940 2053.000000
16.553690 1976.000000
16.573440 2022.000000
16.593190 2010.000000
16.612940 1957.000000
16.632690 1942.000000
16.652440 2016.000000
16.672190 2070.000000
16.691940 2121.000000
16.711690 2096.000000
16.731440 2098.000000
16.751190 2196.000000
16.770940 2092.000000
16.790690 2121.000000
16.810440 1996.000000
16.830190 1985.000000
16.849940 1977.000000
16.869690 2005.000000
16.889440 1998.000000
16.909190 1924.000000
16.928940 1975.000000
16.948690 1920.000000
16.968440 1945.000000
16.988190 1921.000000
17.007940 2005.000000
17.027690 1969.000000
17.047440 1962.000000
17.067190 1864.000000
17.086940 1929.000000
17.106690 1947.000000
17.126440 1853.000000
17.146190 1980.000000
17.165940 1916.000000
17.185690 1896.000000
17.205440 1970.000000
17.225190 1972.000000
17.244940 1883.000000
17.264690 1946.000000
17.284440 1910.000000
17.304190 1974.000000
17.323940 1966.000000
17.343690 1948.000000
17.363440 1964.000000
17.383190 1998.000000
17.402940 1928.000000
17.422690 1972.000000
17.442440 1912.000000
17.462190 1923.000000
17.481940 1883.000000
17.501690 1925.000000
17.521440 1883.000000
17.541190 2035.000000
17.560940 1896.000000
17.580690 1917.000000
17.600440 1903.000000
17.620190 1833.000000
17.639940 1913.000000
17.659690 1879.000000
17.679440 1922.000000
17.699190 1929.000000
17.718940 1929.000000
17.738690 1849.000000
17.758440 1868.000000
17.778190 1858.000000
17.797940 1935.000000
17.817690 1918.000000
17.837440 1887.000000
17.857180 1869.000000
17.876930 1907.000000
17.896680 1864.000000
17.916430 1919.000000
17.936180 1823.000000
17.955930 1867.000000
17.975680 2035.000000
17.995430 1998.000000
18.015180 2074.000000
18.034930 1991.000000
18.054680 1936.000000
18.074430 1936.000000
18.094180 1979.000000
18.113930 1934.000000
18.133680 1986.000000
18.153430 1936.000000
18.173180 1911.000000
18.192930 1938.000000
18.212680 1971.000000
18.232430 1909.000000
18.252180 1888.000000
18.271930 1951.000000
18.291680 1865.000000
18.311430 1887.000000
18.331180 1894.000000
18.350930 1897.000000
18.370680 1940.000000
18.390430 1906.000000
18.410180 2002.000000
18.429930 1918.000000
18.449680 1866.000000
18.469430 1925.000000
18.489180 1957.000000
18.508930 1897.000000
18.528680 1944.000000
18.548430 1841.000000
18.568180 1889.000000
18.587930 2004.000000
18.607680 2024.000000
18.627430 1946.000000
18.647180 1910.000000
18.666930 2022.000000
18.686680 1991.000000
18.706430 1951.000000
18.726180 1992.000000
18.745930 2076.000000
18.765680 2034.000000
18.785430 2093.000000
18.805180 2159.000000
18.824930 2216.000000
18.844680 2292.000000
18.864430 2317.000000
18.884180 2371.000000
18.903930 2291.000000
18.923680 2228.000000
18.943430 2103.000000
18.963180 2213.000000
18.982930 2128.000000
19.002680 2047.000000
19.022430 2165.000000
19.042180 2087.000000
19.061930 2073.000000
19.081680 1968.000000
19.101430 1969.000000
19.121180 2012.000000
19.140930 1979.000000
19.160680 2018.000000
19.180430 1886.000000
19.200180 1998.000000
19.219930 2112.000000
19.239680 1964.000000
19.259430 2002.000000
19.279180 2017.000000
19.298930 1991.000000
19.318680 1998.000000
19.338430 2007.000000
19.358180 2017.000000
19.377930 2011.000000
19.397680 2003.000000
19.417430 2011.000000
19.437180 2058.000000
19.456930 1972.000000
19.476680 2020.000000
19.496430 2067.000000
19.516180 2009.000000
19.535930 2062.000000
19.555680 1933.000000
19.575430 2098.000000
19.595180 2107.000000
19.614930 2071.000000
19.634680 2020.000000
19.654430 2001.000000
19.674180 2042.000000
19.693930 1991.000000
19.713680 2024.000000
19.733430 1991.000000
19.753180 1975.000000
19.772930 2052.000000
19.792680 2138.000000
19.812430 2044.000000
19.832170 2009.000000
19.851920 1975.000000
19.871670 1981.000000
19.891420 1983.000000
19.911170 1971.000000
19.930920 2032.000000
19.950670 2083.000000
19.970420 2080.000000
19.990170 2047.000000
20.009920 2094.000000
20.029670 2062.000000
20.049420 2056.000000
20.069170 2067.000000
20.088920 2040.000000
20.108670 2044.000000
20.128420 2233.000000
20.148170 2236.000000
20.167920 2282.000000
20.187670 2343.000000
20.207420 2279.000000
20.227170 2317.000000
20.246920 2188.000000
20.266670 2218.000000
20.286420 2249.000000
20.306170 2054.000000
20.325920 2101.000000
20.345670 2075.000000
20.365420 2029.000000
20.385170 2092.000000
20.404920 2159.000000
20.424670 2069.000000
20.444420 1980.000000
20.464170 2004.000000
20.483920 2021.000000
20.503670 2017.000000
20.523420 2052.000000
20.543170 2111.000000
20.562920 2108.000000
20.582670 2012.000000
20.602420 2081.000000
20.622170 2150.000000
20.641920 2160.000000
20.661670 2155.000000
20.681420 2141.000000
20.701170 2158.000000
20.720920 2174.000000
20.740670 2143.000000
20.760420 2172.000000
20.780170 2098.000000
20.799920 2089.000000
20.819670 2004.000000
20.839420 2102.000000
20.859170 2044.000000
20.878920 2100.000000
20.898670 2152.000000
20.918420 2024.000000
20.938170 2030.000000
20.957920 2070.000000
20.977670 2186.000000
20.997420 2186.000000
21.017170 2169.000000
21.036920 2126.000000
21.056670 2276.000000
21.076420 2282.000000
21.096170 2399.000000
21.115920 2572.000000
21.135670 2520.000000
21.155420 2466.000000
21.175170 2449.000000
21.194920 2362.000000
21.214670 2367.000000
21.234420 2283.000000
21.254170 2233.000000
21.273920 2203.000000
21.293670 2190.000000
21.313420 2105.000000
21.333170 2041.000000
21.352920 2077.000000
21.372670 2101.000000
21.392420 2115.000000
21.412170 2075.000000
21.431920 2125.000000
21.451670 1981.000000
21.471420 2088.000000
21.491170 2079.000000
21.510920 2082.000000
21.530670 2098.000000
21.550420 2119.000000
21.570170 2142.000000
21.589920 2102.000000
21.609670 2162.000000
21.629420 2173.000000
21.649170 2128.000000
21.668920 2166.000000
21.688670 2086.000000
21.708420 2070.000000
21.728170 2169.000000
21.747920 2088.000000
21.767670 2038.000000
21.787420 2045.000000
21.807160 2105.000000
21.826910 2094.000000
21.846660 2193.000000
21.866410 2069.000000
21.886160 1998.000000
21.905910 2176.000000
21.925660 2120.000000
21.945410 2174.000000
21.965160 2272.000000
21.984910 2162.000000
22.004660 2188.000000
22.024410 2111.000000
22.044160 2108.000000
22.063910 2097.000000
22.083660 2200.000000
22.103410 2164.000000
22.123160 2104.000000
22.142910 2131.000000
22.162660 2103.000000
22.182410 2096.000000
22.202160 2005.000000
22.221910 2123.000000
22.241660 2083.000000
22.261410 2098.000000
22.281160 2078.000000
22.300910 2070.000000
22.320660 2151.000000
22.340410 2198.000000
22.360160 2152.000000
22.379910 2221.000000
22.399660 2170.000000
22.419410 2176.000000
22.439160 2151.000000
22.458910 2173.000000
22.478660 2203.000000
22.498410 2160.000000
22.518160 2260.000000
22.537910 2216.000000
22.557660 2220.000000
22.577410 2344.000000
22.597160 2419.000000
22.616910 2288.000000
22.636660 2340.000000
22.656410 2202.000000
22.676160 2316.000000
22.695910 2153.000000
22.715660 2188.000000
22.735410 2231.000000
22.755160 2174.000000
22.774910 2261.000000
22.794660 2174.000000
22.814410 2162.000000
22.834160 2220.000000
22.853910 2206.000000
22.873660 2212.000000
22.893410 2166.000000
22.913160 2198.000000
22.932910 2191.000000
22.952660 2310.000000
22.972410 2259.000000
22.992160 2310.000000
23.011910 2360.000000
23.031660 2349.000000
23.051410 2245.000000
23.071160 2297.000000
23.090910 2205.000000
23.110660 2217.000000
23.130410 2190.000000
23.150160 2204.000000
23.169910 2220.000000
23.189660 2251.000000
23.209410 2167.000000
23.229160 2089.000000
23.248910 2201.000000
23.268660 2163.000000
23.288410 2133.000000
23.308160 2259.000000
23.327910 2177.000000
23.347660 2168.000000
23.367410 2145.000000
23.387160 2263.000000
23.406910 2106.000000
23.426660 2193.000000
23.446410 2209.000000
23.466160 2175.000000
23.485910 2161.000000
23.505660 2122.000000
23.525410 2164.000000
23.545160 2186.000000
23.564910 2211.000000
23.584660 2226.000000
23.604410 2316.000000
23.624160 2361.000000
23.643910 2327.000000
23.663660 2301.000000
23.683410 2324.000000
23.703160 2488.000000
23.722910 2533.000000
23.742660 2514.000000
23.762410 2511.000000
23.782150 2410.000000
23.801900 2474.000000
23.821650 2381.000000
23.841400 2343.000000
23.861150 2353.000000
23.880900 2317.000000
23.900650 2379.000000
23.920400 2288.000000
23.940150 2240.000000
23.959900 2258.000000
23.979650 2254.000000
23.999400 2151.000000
24.019150 2103.000000
24.038900 2232.000000
24.058650 2163.000000
24.078400 2253.000000
24.098150 2163.000000
24.117900 2172.000000
24.137650 2265.000000
24.157400 2151.000000
24.177150 2080.000000
24.196900 2108.000000
24.216650 2101.000000
24.236400 2096.000000
24.256150 2174.000000
24.275900 2232.000000
24.295650 2126.000000
24.315400 2169.000000
24.335150 2194.000000
24.354900 2227.000000
24.374650 2194.000000
24.394400 2164.000000
24.414150 2199.000000
24.433900 2128.000000
24.453650 2234.000000
24.473400 2139.000000
24.493150 2142.000000
24.512900 2090.000000
24.532650 2191.000000
24.552400 2196.000000
24.572150 2212.000000
24.591900 2082.000000
24.611650 2150.000000
24.631400 2238.000000
24.651150 2200.000000
24.670900 2074.000000
24.690650 2235.000000
24.710400 2169.000000
24.730150 2266.000000
24.749900 2186.000000
24.769650 2244.000000
24.789400 2272.000000
24.809150 2208.000000
24.828900 2263.000000
24.848650 2135.000000
24.868400 2313.000000
24.888150 2292.000000
24.907900 2327.000000
24.927650 2399.000000
24.947400 2404.000000
24.967150 2392.000000
24.986900 2516.000000
25.006650 2731.000000
25.026400 2860.000000
25.046150 3053.000000
25.065900 3179.000000
25.085650 3256.000000
25.105400 3299.000000
25.125150 3564.000000
25.144900 3546.000000
25.164650 3293.000000
25.184400 3218.000000
25.204150 3183.000000
25.223900 2851.000000
25.243650 2658.000000
25.263400 2592.000000
25.283150 2503.000000
25.302900 2416.000000
25.322650 2462.000000
25.342400 2435.000000
25.362150 2272.000000
25.381900 2268.000000
25.401650 2329.000000
25.421400 2255.000000
25.441150 2250.000000
25.460900 2265.000000
25.480650 2169.000000
25.500400 2266.000000
25.520150 2266.000000
25.539900 2283.000000
25.559650 2310.000000
25.579400 2404.000000
25.599150 2491.000000
25.618900 2445.000000
25.638650 2543.000000
25.658400 2617.000000
25.678150 2619.000000
25.697900 2792.000000
25.717650 2777.000000
25.737400 2883.000000
25.757140 2843.000000
25.776890 2850.000000
25.796640 2814.000000
25.816390 2815.000000
25.836140 2734.000000
25.855890 2588.000000
25.875640 2605.000000
25.895390 2435.000000
25.915140 2355.000000
25.934890 2408.000000
25.954640 2324.000000
25.974390 2275.000000
25.994140 2165.000000
26.013890 2212.000000
26.033640 2282.000000
26.053390 2198.000000
26.073140 2170.000000
26.092890 2188.000000
26.112640 2050.000000
26.132390 2194.000000
26.152140 2188.000000
26.171890 2140.000000
26.191640 2172.000000
26.211390 2217.000000
26.231140 2184.000000
26.250890 2113.000000
26.270640 2215.000000
26.290390 2040.000000
26.310140 2136.000000
26.329890 2111.000000
26.349640 2080.000000
26.369390 2052.000000
26.389140 2123.000000
26.408890 2112.000000
26.428640 2109.000000
26.448390 2120.000000
26.468140 2110.000000
26.487890 2093.000000
26.507640 2079.000000
26.527390 2015.000000
26.547140 2122.000000
26.566890 2169.000000
26.586640 1996.000000
26.606390 2144.000000
26.626140 2111.000000
26.645890 2088.000000
26.665640 2164.000000
26.685390 2110.000000
26.705140 2018.000000
26.724890 2134.000000
26.744640 2103.000000
26.764390 2116.000000
26.784140 2170.000000
26.803890 2087.000000
26.823640 2124.000000
26.843390 2102.000000
26.863140 2093.000000
26.882890 2088.000000
26.902640 2150.000000
26.922390 2116.000000
26.942140 2141.000000
26.961890 2163.000000
26.981640 2108.000000
27.001390 2144.000000
27.021140 2118.000000
27.040890 2089.000000
27.060640 2147.000000
27.080390 2119.000000
27.100140 2118.000000
27.119890 2094.000000
27.139640 2151.000000
27.159390 2139.000000
27.179140 2172.000000
27.198890 2112.000000
27.218640 2173.000000
27.238390 2212.000000
27.258140 2215.000000
27.277890 2193.000000
27.297640 2175.000000
27.317390 2115.000000
27.337140 2208.000000
27.356890 2176.000000
27.376640 2131.000000
27.396390 2153.000000
27.416140 2198.000000
27.435890 2104.000000
27.455640 2157.000000
27.475390 2263.000000
27.495140 2317.000000
27.514890 2390.000000
27.534640 2349.000000
27.554390 2418.000000
27.574140 2568.000000
27.593890 2536.000000
27.613640 2753.000000
27.633390 2789.000000
27.653140 2980.000000
27.672890 3122.000000
27.692640 3317.000000
27.712390 3861.000000
27.732130 4452.000000
27.751880 4932.000000
27.771630 5824.000000
27.791380 6854.000000
27.811130 7843.000000
27.830880 8731.000000
27.850630 9258.000000
27.870380 9185.000000
27.890130 9152.000000
27.909880 8352.000000
27.929630 7373.000000
27.949380 6375.000000
27.969130 5357.000000
27.988880 4657.000000
28.008630 4098.000000
28.028380 3596.000000
28.048130 3287.000000
28.067880 3026.000000
28.087630 2741.000000
28.107380 2668.000000
28.127130 2626.000000
28.146880 2634.000000
28.166630 2483.000000
28.186380 2419.000000
28.206130 2392.000000
28.225880 2403.000000
28.245630 2414.000000
28.265380 2354.000000
28.285130 2458.000000
28.304880 2501.000000
28.324630 2535.000000
28.344380 2615.000000
28.364130 2680.000000
28.383880 2748.000000
28.403630 2946.000000
28.423380 2956.000000
28.443130 3290.000000
28.462880 3610.000000
28.482630 4044.000000
28.502380 4669.000000
28.522130 5521.000000
28.541880 6618.000000
28.561630 7854.000000
28.581380 9175.000000
28.601130 10480.000000
28.620880 11493.000000
28.640630 12286.000000
28.660380 12191.000000
28.680130 11711.000000
28.699880 10768.000000
28.719630 9802.000000
28.739380 8617.000000
28.759130 7298.000000
28.778880 6313.000000
28.798630 5489.000000
28.818380 4838.000000
28.838130 4404.000000
28.857880 4340.000000
28.877630 4078.000000
28.897380 3870.000000
28.917130 3661.000000
28.936880 3430.000000
28.956630 3231.000000
28.976380 3102.000000
28.996130 2793.000000
29.015880 2661.000000
29.035630 2490.000000
29.055380 2422.000000
29.075130 2489.000000
29.094880 2410.000000
29.114630 2403.000000
29.134380 2412.000000
29.154130 2464.000000
29.173880 2506.000000
29.193630 2612.000000
29.213380 2711.000000
29.233130 2950.000000
29.252880 3081.000000
29.272630 3201.000000
29.292380 3206.000000
29.312130 3034.000000
29.331880 3111.000000
29.351630 2791.000000
29.371380 2669.000000
29.391130 2500.000000
29.410880 2473.000000
29.430630 2393.000000
29.450380 2393.000000
29.470130 2437.000000
29.489880 2484.000000
29.509630 2505.000000
29.529380 2585.000000
29.549130 2610.000000
29.568880 2574.000000
29.588630 2567.000000
29.608380 2393.000000
29.628130 2346.000000
29.647880 2391.000000
29.667630 2267.000000
29.687380 2256.000000
29.707120 2208.000000
29.726870 2199.000000
29.746620 2108.000000
29.766370 2129.000000
29.786120 2104.000000
29.805870 2115.000000
29.825620 2034.000000
29.845370 2059.000000
29.865120 2096.000000
29.884870 2111.000000
29.904620 2007.000000
29.924370 2021.000000
29.944120 2063.000000
29.963870 2087.000000
29.983620 2114.000000
30.003370 2026.000000
30.023120 2016.000000
30.042870 2106.000000
30.062620 2013.000000
30.082370 2027.000000
30.102120 2005.000000
30.121870 2078.000000
30.141620 2031.000000
30.161370 1906.000000
30.181120 2072.000000
30.200870 2103.000000
30.220620 2089.000000
30.240370 2127.000000
30.260120 2206.000000
30.279870 2130.000000
30.299620 2192.000000
30.319370 2161.000000
30.339120 2197.000000
30.358870 2136.000000
30.378620 2130.000000
30.398370 2214.000000
30.418120 2075.000000
30.437870 2130.000000
30.457620 2184.000000
30.477370 2162.000000
30.497120 2155.000000
30.516870 2171.000000
30.536620 2052.000000
30.556370 2071.000000
30.576120 2096.000000
30.595870 2103.000000
30.615620 2132.000000
30.635370 2200.000000
30.655120 2271.000000
30.674870 2387.000000
30.694620 2587.000000
30.714370 2670.000000
30.734120 2846.000000
30.753870 2919.000000
30.773620 2936.000000
30.793370 2901.000000
30.813120 3011.000000
30.832870 2857.000000
30.852620 2701.000000
30.872370 2585.000000
30.892120 2505.000000
30.911870 2367.000000
30.931620 2307.000000
30.951370 2214.000000
30.971120 2134.000000
30.990870 2111.000000
31.010620 2032.000000
31.030370 2062.000000
31.050120 2017.000000
31.069870 2028.000000
31.089620 1978.000000
31.109370 2049.000000
31.129120 1973.000000
31.148870 1990.000000
31.168620 1920.000000
31.188370 1992.000000
31.208120 2035.000000
31.227870 2077.000000
31.247620 2097.000000
31.267370 2216.000000
31.287120 2118.000000
31.306870 2262.000000
31.326620 2331.000000
31.346370 2392.000000
31.366120 2464.000000
31.385870 2451.000000
31.405620 2463.000000
31.425370 2454.000000
31.445120 2333.000000
31.464870 2220.000000
31.484620 2299.000000
31.504370 2210.000000
31.524120 2144.000000
31.543870 2158.000000
31.563620 2165.000000
31.583370 2153.000000
31.603120 2143.000000
31.622870 2172.000000
31.642620 2281.000000
31.662370 2308.000000
31.682110 2435.000000
31.701860 2624.000000
31.721610 2710.000000
31.741360 2793.000000
31.761110 2811.000000
31.780860 2784.000000
31.800610 2863.000000
31.820360 2852.000000
31.840110 2789.000000
31.859860 2750.000000
31.879610 2699.000000
31.899360 2789.000000
31.919110 2727.000000
31.938860 2717.000000
31.958610 2589.000000
31.978360 2559.000000
31.998110 2534.000000
32.017860 2368.000000
32.037610 2365.000000
32.057360 2219.000000
32.077110 2179.000000
32.096860 2060.000000
32.116610 1949.000000
32.136360 1920.000000
32.156110 2032.000000
32.175860 1991.000000
32.195610 2006.000000
32.215360 1995.000000
32.235110 1867.000000
32.254860 2009.000000
32.274610 2017.000000
32.294360 2013.000000
32.314110 2052.000000
32.333860 2098.000000
32.353610 2169.000000
32.373360 2271.000000
32.393110 2359.000000
32.412860 2481.000000
32.432610 2407.000000
32.452360 2556.000000
32.472110 2537.000000
32.491860 2628.000000
32.511610 2627.000000
32.531360 2682.000000
32.551110 2753.000000
32.570860 2767.000000
32.590610 2664.000000
32.610360 2571.000000
32.630110 2514.000000
32.649860 2529.000000
32.669610 2378.000000
32.689360 2264.000000
32.709110 2200.000000
32.728860 2187.000000
32.748610 2083.000000
32.768360 2075.000000
32.788110 2040.000000
32.807860 1967.000000
32.827610 1952.000000
32.847360 1832.000000
32.867110 1842.000000
32.886860 1840.000000
32.906610 1895.000000
32.926360 1873.000000
32.946110 1803.000000
32.965860 1953.000000
32.985610 1850.000000
33.005360 1833.000000
33.025110 1941.000000
33.044860 1972.000000
33.064610 1998.000000
33.084360 2001.000000
33.104110 2098.000000
33.123860 2142.000000
33.143610 2155.000000
33.163360 2292.000000
33.183110 2423.000000
33.202860 2513.000000
33.222610 2771.000000
33.242360 3061.000000
33.262110 3276.000000
33.281860 3667.000000
33.301610 4141.000000
33.321360 4543.000000
33.341110 5043.000000
33.360860 5323.000000
33.380610 5376.000000
33.400360 5379.000000
33.420110 5075.000000
33.439860 4769.000000
33.459610 4377.000000
33.479360 4002.000000
33.499110 3510.000000
33.518860 3297.000000
33.538610 3061.000000
33.558360 2894.000000
33.578110 2800.000000
33.597860 2875.000000
33.617610 2820.000000
33.637360 2863.000000
33.657100 3102.000000
33.676850 3232.000000
33.696600 3310.000000
33.716350 3467.000000
33.736100 3545.000000
33.755850 3580.000000
33.775600 3369.000000
33.795350 3398.000000
33.815100 3279.000000
33.834850 3187.000000
33.854600 3195.000000
33.874350 3047.000000
33.894100 2997.000000
33.913850 3030.000000
33.933600 2940.000000
33.953350 3102.000000
33.973100 3105.000000
33.992850 3214.000000
34.012600 3268.000000
34.032350 3367.000000
34.052100 3572.000000
34.071850 3694.000000
34.091600 3950.000000
34.111350 3881.000000
34.131100 3751.000000
34.150850 3754.000000
34.170600 3650.000000
34.190350 3449.000000
34.210100 3306.000000
34.229850 3167.000000
34.249600 2983.000000
34.269350 2950.000000
34.289100 2553.000000
34.308850 2399.000000
34.328600 2319.000000
34.348350 2265.000000
34.368100 2177.000000
34.387850 2030.000000
34.407600 2121.000000
34.427350 2062.000000
34.447100 1988.000000
34.466850 1947.000000
34.486600 1930.000000
34.506350 2009.000000
34.526100 1945.000000
34.545850 1950.000000
34.565600 2008.000000
34.585350 1939.000000
34.605100 2032.000000
34.624850 2004.000000
34.644600 1967.000000
34.664350 2012.000000
34.684100 2113.000000
34.703850 2176.000000
34.723600 2198.000000
34.743350 2331.000000
34.763100 2456.000000
34.782850 2611.000000
34.802600 2568.000000
34.822350 2692.000000
34.842100 2730.000000
34.861850 2799.000000
34.881600 2748.000000
34.901350 2675.000000
34.921100 2710.000000
34.940850 2663.000000
34.960600 2663.000000
34.980350 2673.000000
35.000100 2751.000000
35.019850 2771.000000
35.039600 2899.000000
35.059350 2796.000000
35.079100 2719.000000
35.098850 2737.000000
35.118600 2502.000000
35.138350 2426.000000
35.158100 2348.000000
35.177850 2237.000000
35.197600 2156.000000
35.217350 2090.000000
35.237100 1949.000000
35.256850 1962.000000
35.276600 2008.000000
35.296350 1849.000000
35.316100 1824.000000
35.335850 1846.000000
35.355600 1797.000000
35.375350 1841.000000
35.395100 1728.000000
35.414850 1765.000000
35.434600 1802.000000
35.454350 1807.000000
35.474100 1822.000000
35.493850 1830.000000
35.513600 1722.000000
35.533350 1830.000000
35.553100 1874.000000
35.572850 1873.000000
35.592600 1946.000000
35.612350 1958.000000
35.632090 2019.000000
35.651840 1950.000000
35.671590 1872.000000
35.691340 1909.000000
35.711090 1867.000000
35.730840 1877.000000
35.750590 1809.000000
35.770340 1824.000000
35.790090 1733.000000
35.809840 1748.000000
35.829590 1733.000000
35.849340 1693.000000
35.869090 1758.000000
35.888840 1778.000000
35.908590 1787.000000
35.928340 1741.000000
35.948090 1790.000000
35.967840 1841.000000
35.987590 1857.000000
36.007340 1869.000000
36.027090 1894.000000
36.046840 1947.000000
36.066590 1958.000000
36.086340 1908.000000
36.106090 1904.000000
36.125840 1870.000000
36.145590 1919.000000
36.165340 1833.000000
36.185090 1830.000000
36.204840 1781.000000
36.224590 1780.000000
36.244340 1756.000000
36.264090 1717.000000
36.283840 1762.000000
36.303590 1718.000000
36.323340 1698.000000
36.343090 1722.000000
36.362840 1770.000000
36.382590 1807.000000
36.402340 1821.000000
36.422090 1867.000000
36.441840 2004.000000
36.461590 2080.000000
36.481340 2083.000000
36.501090 2117.000000
36.520840 2068.000000
36.540590 2101.000000
36.560340 2094.000000
36.580090 1937.000000
36.599840 1998.000000
36.619590 1883.000000
36.639340 1764.000000
36.659090 1828.000000
36.678840 1817.000000
36.698590 1855.000000
36.718340 1739.000000
36.738090 1757.000000
36.757840 1767.000000
36.777590 1690.000000
36.797340 1737.000000
36.817090 1643.000000
36.836840 1628.000000
36.856590 1696.000000
36.876340 1688.000000
36.896090 1635.000000
36.915840 1544.000000
36.935590 1638.000000
36.955340 1581.000000
36.975090 1649.000000
36.994840 1605.000000
37.014590 1615.000000
37.034340 1591.000000
37.054090 1644.000000
37.073840 1638.000000
37.093590 1618.000000
37.113340 1613.000000
37.133090 1639.000000
37.152840 1663.000000
37.172590 1689.000000
37.192340 1680.000000
37.212090 1651.000000
37.231840 1633.000000
37.251590 1600.000000
37.271340 1648.000000
37.291090 1661.000000
37.310840 1641.000000
37.330590 1577.000000
37.350340 1615.000000
37.370090 1630.000000
37.389840 1680.000000
37.409590 1656.000000
37.429340 1618.000000
37.449090 1626.000000
37.468840 1651.000000
37.488590 1712.000000
37.508340 1731.000000
37.528090 1748.000000
37.547840 1734.000000
37.567590 1784.000000
37.587340 1831.000000
37.607080 1837.000000
37.626830 1903.000000
37.646580 1937.000000
37.666330 1979.000000
37.686080 1937.000000
37.705830 1849.000000
37.725580 1920.000000
37.745330 1898.000000
37.765080 1874.000000
37.784830 1883.000000
37.804580 1834.000000
37.824330 1900.000000
37.844080 1854.000000
37.863830 1873.000000
37.883580 1837.000000
37.903330 1818.000000
37.923080 1815.000000
37.942830 1790.000000
37.962580 1710.000000
37.982330 1727.000000
38.002080 1697.000000
38.021830 1653.000000
38.041580 1674.000000
38.061330 1665.000000
38.081080 1713.000000
38.100830 1792.000000
38.120580 1761.000000
38.140330 1832.000000
38.160080 1808.000000
38.179830 1980.000000
38.199580 1881.000000
38.219330 1797.000000
38.239080 1810.000000
38.258830 1826.000000
38.278580 1806.000000
38.298330 1732.000000
38.318080 1632.000000
38.337830 1519.000000
38.357580 1542.000000
38.377330 1504.000000
38.397080 1562.000000
38.416830 1532.000000
38.436580 1515.000000
38.456330 1467.000000
38.476080 1482.000000
38.495830 1599.000000
38.515580 1510.000000
38.535330 1506.000000
38.555080 1464.000000
38.574830 1513.000000
38.594580 1512.000000
38.614330 1624.000000
38.634080 1665.000000
38.653830 1577.000000
38.673580 1598.000000
38.693330 1637.000000
38.713080 1704.000000
38.732830 1664.000000
38.752580 1674.000000
38.772330 1612.000000
38.792080 1593.000000
38.811830 1586.000000
38.831580 1572.000000
38.851330 1617.000000
38.871080 1519.000000
38.890830 1551.000000
38.910580 1531.000000
38.930330 1566.000000
38.950080 1535.000000
38.969830 1541.000000
38.989580 1541.000000
39.009330 1503.000000
39.029080 1587.000000
39.048830 1572.000000
39.068580 1561.000000
39.088330 1559.000000
39.108080 1644.000000
39.127830 1659.000000
39.147580 1709.000000
39.167330 1714.000000
39.187080 1736.000000
39.206830 1721.000000
39.226580 1854.000000
39.246330 1835.000000
39.266080 1771.000000
39.285830 1816.000000
39.305580 1741.000000
39.325330 1714.000000
39.345080 1695.000000
39.364830 1676.000000
39.384580 1646.000000
39.404330 1646.000000
39.424080 1593.000000
39.443830 1646.000000
39.463580 1590.000000
39.483330 1616.000000
39.503080 1559.000000
39.522830 1583.000000
39.542580 1590.000000
39.562330 1656.000000
39.582070 1581.000000
39.601820 1630.000000
39.621570 1591.000000
39.641320 1563.000000
39.661070 1646.000000
39.680820 1665.000000
39.700570 1723.000000
39.720320 1616.000000
39.740070 1696.000000
39.759820 1775.000000
39.779570 1756.000000
39.799320 1702.000000
39.819070 1764.000000
39.838820 1817.000000
39.858570 1902.000000
39.878320 1911.000000
39.898070 2068.000000
39.917820 2272.000000
39.937570 2356.000000
39.957320 2608.000000
39.977070 2769.000000
39.996820 2878.000000
40.016570 3055.000000
40.036320 3008.000000
40.056070 3020.000000
40.075820 2915.000000
40.095570 2923.000000
40.115320 2824.000000
40.135070 2736.000000
40.154820 2695.000000
40.174570 2611.000000
40.194320 2508.000000
40.214070 2523.000000
40.233820 2389.000000
40.253570 2367.000000
40.273320 2359.000000
40.293070 2384.000000
40.312820 2407.000000
40.332570 2296.000000
40.352320 2412.000000
40.372070 2454.000000
40.391820 2652.000000
40.411570 2943.000000
40.431320 3237.000000
40.451070 3612.000000
40.470820 3965.000000
40.490570 4451.000000
40.510320 4958.000000
40.530070 5505.000000
40.549820 5836.000000
40.569570 6603.000000
40.589320 7196.000000
40.609070 8002.000000
40.628820 8675.000000
40.648570 9382.000000
40.668320 9392.000000
40.688070 9279.000000
40.707820 8777.000000
40.727570 8395.000000
40.747320 7518.000000
40.767070 7187.000000
40.786820 6282.000000
40.806570 5715.000000
40.826320 4929.000000
40.846070 4349.000000
40.865820 3879.000000
40.885570 3493.000000
40.905320 2982.000000
40.925070 2754.000000
40.944820 2502.000000
40.964570 2338.000000
40.984320 2143.000000
41.004070 2045.000000
41.023820 1887.000000
41.043570 1886.000000
41.063320 1872.000000
41.083070 1813.000000
41.102820 1701.000000
41.122570 1843.000000
41.142320 1872.000000
41.162070 1874.000000
41.181820 1944.000000
41.201570 1965.000000
41.221320 2090.000000
41.241070 2263.000000
41.260820 2202.000000
41.280570 2243.000000
41.300320 2249.000000
41.320070 2245.000000
41.339820 2139.000000
41.359570 2176.000000
41.379320 2069.000000
41.399070 2064.000000
41.418820 2048.000000
41.438570 1976.000000
41.458320 2007.000000
41.478070 1956.000000
41.497820 1876.000000
41.517570 1830.000000
41.537320 1845.000000
41.557060 1785.000000
41.576810 1754.000000
41.596560 1740.000000
41.616310 1689.000000
41.636060 1619.000000
41.655810 1591.000000
41.675560 1583.000000
41.695310 1595.000000
41.715060 1592.000000
41.734810 1583.000000
41.754560 1633.000000
41.774310 1625.000000
41.794060 1707.000000
41.813810 1774.000000
41.833560 1845.000000
41.853310 1772.000000
41.873060 1849.000000
41.892810 1875.000000
41.912560 1973.000000
41.932310 1908.000000
41.952060 1859.000000
41.971810 1882.000000
41.991560 1825.000000
42.011310 1824.000000
42.031060 1761.000000
42.050810 1766.000000
42.070560 1653.000000
42.090310 1624.000000
42.110060 1693.000000
42.129810 1608.000000
42.149560 1598.000000
42.169310 1572.000000
42.189060 1499.000000
42.208810 1512.000000
42.228560 1545.000000
42.248310 1579.000000
42.268060 1627.000000
42.287810 1552.000000
42.307560 1607.000000
42.327310 1657.000000
42.347060 1724.000000
42.366810 1761.000000
42.386560 1830.000000
42.406310 1815.000000
42.426060 1975.000000
42.445810 2037.000000
42.465560 2072.000000
42.485310 2068.000000
42.505060 2048.000000
42.524810 2016.000000
42.544560 2041.000000
42.564310 1970.000000
42.584060 1913.000000
42.603810 1863.000000
42.623560 1899.000000
42.643310 1756.000000
42.663060 1768.000000
42.682810 1753.000000
42.702560 1811.000000
42.722310 1807.000000
42.742060 1765.000000
42.761810 1888.000000
42.781560 1863.000000
42.801310 1942.000000
42.821060 2024.000000
42.840810 1965.000000
42.860560 1940.000000
42.880310 1989.000000
42.900060 1958.000000
42.919810 1980.000000
42.939560 1860.000000
42.959310 1808.000000
42.979060 1795.000000
42.998810 1776.000000
43.018560 1765.000000
43.038310 1680.000000
43.058060 1677.000000
43.077810 1594.000000
43.097560 1523.000000
43.117310 1463.000000
43.137060 1498.000000
43.156810 1544.000000
43.176560 1391.000000
43.196310 1473.000000
43.216060 1439.000000
43.235810 1411.000000
43.255560 1452.000000
43.275310 1459.000000
43.295060 1504.000000
43.314810 1555.000000
43.334560 1452.000000
43.354310 1460.000000
43.374060 1481.000000
43.393810 1437.000000
43.413560 1430.000000
43.433310 1424.000000
43.453060 1515.000000
43.472810 1473.000000
43.492560 1543.000000
43.512310 1573.000000
43.532050 1520.000000
43.551800 1538.000000
43.571550 1519.000000
43.591300 1566.000000
43.611050 1577.000000
43.630800 1567.000000
43.650550 1516.000000
43.670300 1567.000000
43.690050 1637.000000
43.709800 1581.000000
43.729550 1540.000000
43.749300 1613.000000
43.769050 1637.000000
43.788800 1727.000000
43.808550 1733.000000
43.828300 1733.000000
43.848050 1774.000000
43.867800 1814.000000
43.887550 1707.000000
43.907300 1789.000000
43.927050 1700.000000
43.946800 1701.000000
43.966550 1657.000000
43.986300 1696.000000
44.006050 1693.000000
44.025800 1691.000000
44.045550 1777.000000
44.065300 1550.000000
44.085050 1640.000000
44.104800 1576.000000
44.124550 1627.000000
44.144300 1540.000000
44.164050 1611.000000
44.183800 1535.000000
44.203550 1548.000000
44.223300 1502.000000
44.243050 1564.000000
44.262800 1520.000000
44.282550 1519.000000
44.302300 1522.000000
44.322050 1651.000000
44.341800 1664.000000
44.361550 1681.000000
44.381300 1745.000000
44.401050 1814.000000
44.420800 1937.000000
44.440550 1971.000000
44.460300 2060.000000
44.480050 2178.000000
44.499800 2260.000000
44.519550 2356.000000
44.539300 2217.000000
44.559050 2277.000000
44.578800 2158.000000
44.598550 2093.000000
44.618300 2064.000000
44.638050 1867.000000
44.657800 1864.000000
44.677550 1840.000000
44.697300 1635.000000
44.717050 1624.000000
44.736800 1580.000000
44.756550 1518.000000
44.776300 1471.000000
44.796050 1393.000000
44.815800 1454.000000
44.835550 1407.000000
44.855300 1452.000000
44.875050 1411.000000
44.894800 1377.000000
44.914550 1368.000000
44.934300 1422.000000
44.954050 1386.000000
44.973800 1395.000000
44.993550 1459.000000
45.013300 1441.000000
45.033050 1399.000000
45.052800 1357.000000
45.072550 1365.000000
45.092300 1416.000000
45.112050 1315.000000
45.131800 1394.000000
45.151550 1358.000000
45.171300 1416.000000
45.191050 1450.000000
45.210800 1408.000000
45.230550 1424.000000
45.250300 1424.000000
45.270050 1462.000000
45.289800 1421.000000
45.309550 1405.000000
45.329300 1453.000000
45.349050 1457.000000
45.368800 1416.000000
45.388550 1443.000000
45.408300 1409.000000
45.428050 1430.000000
45.447800 1387.000000
45.467550 1324.000000
45.487300 1436.000000
45.507040 1386.000000
45.526790 1383.000000
45.546540 1440.000000
45.566290 1397.000000
45.586040 1426.000000
45.605790 1409.000000
45.625540 1422.000000
45.645290 1418.000000
45.665040 1424.000000
45.684790 1378.000000
45.704540 1419.000000
45.724290 1419.000000
45.744040 1396.000000
45.763790 1427.000000
45.783540 1417.000000
45.803290 1490.000000
45.823040 1515.000000
45.842790 1443.000000
45.862540 1526.000000
45.882290 1526.000000
45.902040 1573.000000
45.921790 1583.000000
45.941540 1611.000000
45.961290 1651.000000
45.981040 1600.000000
46.000790 1631.000000
46.020540 1541.000000
46.040290 1680.000000
46.060040 1653.000000
46.079790 1580.000000
46.099540 1658.000000
46.119290 1671.000000
46.139040 1687.000000
46.158790 1751.000000
46.178540 1802.000000
46.198290 1831.000000
46.218040 1948.000000
46.237790 2005.000000
46.257540 2113.000000
46.277290 2386.000000
46.297040 2594.000000
46.316790 2849.000000
46.336540 3029.000000
46.356290 3182.000000
46.376040 3220.000000
46.395790 3281.000000
46.415540 3299.000000
46.435290 3163.000000
46.455040 3032.000000
46.474790 3006.000000
46.494540 2818.000000
46.514290 2577.000000
46.534040 2509.000000
46.553790 2402.000000
46.573540 2159.000000
46.593290 2114.000000
46.613040 2114.000000
46.632790 2127.000000
46.652540 2159.000000
46.672290 2091.000000
46.692040 2220.000000
46.711790 2299.000000
46.731540 2499.000000
46.751290 2674.000000
46.771040 2757.000000
46.790790 3049.000000
46.810540 3090.000000
46.830290 3177.000000
46.850040 3213.000000
46.869790 3216.000000
46.889540 3232.000000
46.909290 3206.000000
46.929040 3115.000000
46.948790 3040.000000
46.968540 3042.000000
46.988290 2909.000000
47.008040 2928.000000
47.027790 2953.000000
47.047540 3033.000000
47.067290 3111.000000
47.087040 3213.000000
47.106790 3233.000000
47.126540 3389.000000
47.146290 3527.000000
47.166040 3501.000000
47.185790 3438.000000
47.205540 3375.000000
47.225290 3299.000000
47.245040 3343.000000
47.264790 3144.000000
47.284540 3084.000000
47.304290 2970.000000
47.324040 2805.000000
47.343790 2553.000000
47.363540 2400.000000
47.383290 2332.000000
47.403040 2167.000000
47.422790 2013.000000
47.442540 1926.000000
47.462290 1819.000000
47.482030 1661.000000
47.501780 1600.000000
47.521530 1610.000000
47.541280 1625.000000
47.561030 1557.000000
47.580780 1482.000000
47.600530 1547.000000
47.620280 1533.000000
47.640030 1488.000000
47.659780 1464.000000
47.679530 1400.000000
47.699280 1499.000000
47.719030 1494.000000
47.738780 1417.000000
47.758530 1423.000000
47.778280 1384.000000
47.798030 1427.000000
47.817780 1444.000000
47.837530 1422.000000
47.857280 1423.000000
47.877030 1491.000000
47.896780 1567.000000
47.916530 1463.000000
47.936280 1489.000000
47.956030 1517.000000
47.975780 1575.000000
47.995530 1564.000000
48.015280 1642.000000
48.035030 1638.000000
48.054780 1659.000000
48.074530 1542.000000
48.094280 1538.000000
48.114030 1570.000000
48.133780 1566.000000
48.153530 1529.000000
48.173280 1578.000000
48.193030 1574.000000
48.212780 1535.000000
48.232530 1596.000000
48.252280 1542.000000
48.272030 1530.000000
48.291780 1617.000000
48.311530 1661.000000
48.331280 1640.000000
48.351030 1692.000000
48.370780 1714.000000
48.390530 1757.000000
48.410280 1871.000000
48.430030 1969.000000
48.449780 2061.000000
48.469530 2074.000000
48.489280 2176.000000
48.509030 2330.000000
48.528780 2589.000000
48.548530 2664.000000
48.568280 2851.000000
48.588030 3178.000000
48.607780 3482.000000
48.627530 3701.000000
48.647280 3802.000000
48.667030 3786.000000
48.686780 3816.000000
48.706530 3851.000000
48.726280 4074.000000
48.746030 3979.000000
48.765780 3835.000000
48.785530 3818.000000
48.805280 3828.000000
48.825030 3734.000000
48.844780 3502.000000
48.864530 3322.000000
48.884280 3143.000000
48.904030 3014.000000
48.923780 2869.000000
48.943530 2683.000000
48.963280 2484.000000
48.983030 2316.000000
49.002780 2171.000000
49.022530 2125.000000
49.042280 1962.000000
49.062030 1908.000000
49.081780 1892.000000
49.101530 1746.000000
49.121280 1633.000000
49.141030 1565.000000
49.160780 1657.000000
49.180530 1573.000000
49.200280 1656.000000
49.220030 1622.000000
49.239780 1577.000000
49.259530 1593.000000
49.279280 1578.000000
49.299030 1516.000000
49.318780 1565.000000
49.338530 1560.000000
49.358280 1536.000000
49.378030 1611.000000
49.397780 1497.000000
49.417530 1506.000000
49.437280 1520.000000
49.457020 1610.000000
49.476770 1496.000000
49.496520 1522.000000
49.516270 1507.000000
49.536020 1548.000000
49.555770 1565.000000
49.575520 1499.000000
49.595270 1540.000000
49.615020 1601.000000
49.634770 1519.000000
49.654520 1538.000000
49.674270 1490.000000
49.694020 1506.000000
49.713770 1469.000000
49.733520 1520.000000
49.753270 1497.000000
49.773020 1533.000000
49.792770 1507.000000
49.812520 1522.000000
49.832270 1508.000000
49.852020 1504.000000
49.871770 1448.000000
49.891520 1559.000000
49.911270 1514.000000
49.931020 1518.000000
49.950770 1568.000000
49.970520 1535.000000
49.990270 1456.000000
50.010020 1512.000000
50.029770 1492.000000
50.049520 1601.000000
50.069270 1510.000000
50.089020 1559.000000
50.108770 1543.000000
50.128520 1517.000000
50.148270 1563.000000
50.168020 1421.000000
50.187770 1514.000000
50.207520 1512.000000
50.227270 1537.000000
50.247020 1478.000000
50.266770 1623.000000
50.286520 1544.000000
50.306270 1561.000000
50.326020 1541.000000
50.345770 1631.000000
50.365520 1674.000000
50.385270 1674.000000
50.405020 1606.000000
50.424770 1566.000000
50.444520 1580.000000
50.464270 1516.000000
50.484020 1556.000000
50.503770 1605.000000
50.523520 1539.000000
50.543270 1489.000000
50.563020 1571.000000
50.582770 1480.000000
50.602520 1486.000000
50.622270 1487.000000
50.642020 1519.000000
50.661770 1596.000000
50.681520 1498.000000
50.701270 1473.000000
50.721020 1500.000000
50.740770 1501.000000
50.760520 1467.000000
50.780270 1457.000000
50.800020 1477.000000
50.819770 1490.000000
50.839520 1514.000000
50.859270 1471.000000
50.879020 1402.000000
50.898770 1470.000000
50.918520 1448.000000
50.938270 1444.000000
50.958020 1545.000000
50.977770 1426.000000
50.997520 1448.000000
51.017270 1473.000000
51.037020 1379.000000
51.056770 1423.000000
51.076520 1478.000000
51.096270 1434.000000
51.116020 1467.000000
51.135770 1406.000000
51.155520 1461.000000
51.175270 1453.000000
51.195020 1496.000000
51.214770 1431.000000
51.234520 1445.000000
51.254270 1452.000000
51.274020 1434.000000
51.293770 1449.000000
51.313520 1480.000000
51.333270 1456.000000
51.353020 1443.000000
51.372770 1521.000000
51.392520 1507.000000
51.412270 1466.000000
51.432010 1565.000000
51.451760 1538.000000
51.471510 1547.000000
51.491260 1542.000000
51.511010 1529.000000
51.530760 1508.000000
51.550510 1525.000000
51.570260 1540.000000
51.590010 1453.000000
51.609760 1563.000000
51.629510 1490.000000
51.649260 1489.000000
51.669010 1454.000000
51.688760 1445.000000
51.708510 1450.000000
51.728260 1530.000000
51.748010 1394.000000
51.767760 1461.000000
51.787510 1387.000000
51.807260 1411.000000
51.827010 1378.000000
51.846760 1428.000000
51.866510 1450.000000
51.886260 1389.000000
51.906010 1445.000000
51.925760 1394.000000
51.945510 1368.000000
51.965260 1397.000000
51.985010 1424.000000
52.004760 1425.000000
52.024510 1371.000000
52.044260 1444.000000
52.064010 1419.000000
52.083760 1361.000000
52.103510 1496.000000
52.123260 1408.000000
52.143010 1363.000000
52.162760 1417.000000
52.182510 1407.000000
52.202260 1407.000000
52.222010 1478.000000
52.241760 1449.000000
52.261510 1450.000000
52.281260 1434.000000
52.301010 1409.000000
52.320760 1411.000000
52.340510 1456.000000
52.360260 1474.000000
52.380010 1498.000000
52.399760 1467.000000
52.419510 1454.000000
52.439260 1426.000000
52.459010 1476.000000
52.478760 1524.000000
52.498510 1546.000000
52.518260 1522.000000
52.538010 1602.000000
52.557760 1540.000000
52.577510 1571.000000
52.597260 1669.000000
52.617010 1638.000000
52.636760 1610.000000
52.656510 1608.000000
52.676260 1737.000000
52.696010 1657.000000
52.715760 1634.000000
52.735510 1656.000000
52.755260 1656.000000
52.775010 1752.000000
52.794760 1745.000000
52.814510 1726.000000
52.834260 1781.000000
52.854010 1814.000000
52.873760 1806.000000
52.893510 1734.000000
52.913260 1753.000000
52.933010 1801.000000
52.952760 1689.000000
52.972510 1678.000000
52.992260 1686.000000
53.012010 1791.000000
53.031760 1756.000000
53.051510 1740.000000
53.071260 1722.000000
53.091010 1726.000000
53.110760 1592.000000
53.130510 1674.000000
53.150260 1635.000000
53.170010 1620.000000
53.189760 1611.000000
53.209510 1588.000000
53.229260 1572.000000
53.249010 1621.000000
53.268760 1575.000000
53.288510 1509.000000
53.308260 1526.000000
53.328010 1601.000000
53.347760 1606.000000
53.367510 1569.000000
53.387260 1530.000000
53.407000 1541.000000
53.426750 1496.000000
53.446500 1591.000000
53.466250 1552.000000
53.486000 1589.000000
53.505750 1630.000000
53.525500 1679.000000
53.545250 1751.000000
53.565000 1744.000000
53.584750 1737.000000
53.604500 1772.000000
53.624250 1762.000000
53.644000 1718.000000
53.663750 1695.000000
53.683500 1651.000000
53.703250 1648.000000
53.723000 1561.000000
53.742750 1674.000000
53.762500 1650.000000
53.782250 1606.000000
53.802000 1622.000000
53.821750 1573.000000
53.841500 1552.000000
53.861250 1651.000000
53.881000 1568.000000
53.900750 1591.000000
53.920500 1666.000000
53.940250 1677.000000
53.960000 1772.000000
53.979750 1756.000000
53.999500 1815.000000
54.019250 1793.000000
54.039000 1887.000000
54.058750 1937.000000
54.078500 1900.000000
54.098250 1931.000000
54.118000 1869.000000
54.137750 1826.000000
54.157500 1859.000000
54.177250 1826.000000
54.197000 1859.000000
54.216750 1855.000000
54.236500 1755.000000
54.256250 1686.000000
54.276000 1709.000000
54.295750 1675.000000
54.315500 1738.000000
54.335250 1693.000000
54.355000 1735.000000
54.374750 1844.000000
54.394500 1844.000000
54.414250 1894.000000
54.434000 1946.000000
54.453750 2151.000000
54.473500 2167.000000
54.493250 2302.000000
54.513000 2443.000000
54.532750 2555.000000
54.552500 2649.000000
54.572250 2538.000000
54.592000 2410.000000
54.611750 2402.000000
54.631500 2384.000000
54.651250 2259.000000
54.671000 2141.000000
54.690750 2210.000000
54.710500 2118.000000
54.730250 2084.000000
54.750000 1961.000000
54.769750 1921.000000
54.789500 1750.000000
54.809250 1729.000000
54.829000 1729.000000
54.848750 1676.000000
54.868500 1619.000000
54.888250 1569.000000
54.908000 1585.000000
54.927750 1568.000000
54.947500 1583.000000
54.967250 1585.000000
54.987000 1621.000000
55.006750 1550.000000
55.026500 1599.000000
55.046250 1607.000000
55.066000 1611.000000
55.085750 1673.000000
55.105500 1571.000000
55.125250 1618.000000
55.145000 1654.000000
55.164750 1737.000000
55.184500 1690.000000
55.204250 1738.000000
55.224000 1644.000000
55.243750 1752.000000
55.263500 1712.000000
55.283250 1750.000000
55.303000 1732.000000
55.322750 1646.000000
55.342500 1747.000000
55.362250 1660.000000
55.381990 1715.000000
55.401740 1717.000000
55.421490 1650.000000
55.441240 1803.000000
55.460990 1735.000000
55.480740 1738.000000
55.500490 1743.000000
55.520240 1754.000000
55.539990 1836.000000
55.559740 1939.000000
55.579490 1921.000000
55.599240 2014.000000
55.618990 2096.000000
55.638740 2230.000000
55.658490 2240.000000
55.678240 2338.000000
55.697990 2372.000000
55.717740 2346.000000
55.737490 2420.000000
55.757240 2418.000000
55.776990 2464.000000
55.796740 2335.000000
55.816490 2300.000000
55.836240 2166.000000
55.855990 2097.000000
55.875740 2025.000000
55.895490 2048.000000
55.915240 1876.000000
55.934990 1861.000000
55.954740 1781.000000
55.974490 1794.000000
55.994240 1758.000000
56.013990 1564.000000
56.033740 1645.000000
56.053490 1601.000000
56.073240 1545.000000
56.092990 1556.000000
56.112740 1578.000000
56.132490 1515.000000
56.152240 1435.000000
56.171990 1464.000000
56.191740 1566.000000
56.211490 1593.000000
56.231240 1633.000000
56.250990 1741.000000
56.270740 1626.000000
56.290490 1695.000000
56.310240 1700.000000
56.329990 1747.000000
56.349740 1897.000000
56.369490 1953.000000
56.389240 2038.000000
56.408990 2236.000000
56.428740 2348.000000
56.448490 2466.000000
56.468240 2667.000000
56.487990 2780.000000
56.507740 2854.000000
56.527490 2964.000000
56.547240 3148.000000
56.566990 3157.000000
56.586740 3260.000000
56.606490 3427.000000
56.626240 3437.000000
56.645990 3475.000000
56.665740 3189.000000
56.685490 3195.000000
56.705240 2984.000000
56.724990 2866.000000
56.744740 2792.000000
56.764490 2711.000000
56.784240 2638.000000
56.803990 2593.000000
56.823740 2516.000000
56.843490 2401.000000
56.863240 2283.000000
56.882990 2288.000000
56.902740 2177.000000
56.922490 2227.000000
56.942240 2345.000000
56.961990 2383.000000
56.981740 2455.000000
57.001490 2538.000000
57.021240 2563.000000
57.040990 2586.000000
57.060740 2582.000000
57.080490 2636.000000
57.100240 2608.000000
57.119990 2465.000000
57.139740 2463.000000
57.159490 2439.000000
57.179240 2355.000000
57.198990 2339.000000
57.218740 2270.000000
57.238490 2201.000000
57.258240 2100.000000
57.277990 1978.000000
57.297740 1881.000000
57.317490 1807.000000
57.337240 1731.000000
57.356980 1761.000000
57.376730 1706.000000
57.396480 1742.000000
57.416230 1657.000000
57.435980 1666.000000
57.455730 1627.000000
57.475480 1746.000000
57.495230 1779.000000
57.514980 1715.000000
57.534730 1883.000000
57.554480 1883.000000
57.574230 1911.000000
57.593980 1981.000000
57.613730 2051.000000
57.633480 2011.000000
57.653230 2090.000000
57.672980 2074.000000
57.692730 2144.000000
57.712480 2113.000000
57.732230 2017.000000
57.751980 1998.000000
57.771730 1945.000000
57.791480 1888.000000
57.811230 1831.000000
57.830980 1853.000000
57.850730 1834.000000
57.870480 1717.000000
57.890230 1645.000000
57.909980 1656.000000
57.929730 1608.000000
57.949480 1579.000000
57.969230 1499.000000
57.988980 1544.000000
58.008730 1443.000000
58.028480 1475.000000
58.048230 1445.000000
58.067980 1418.000000
58.087730 1480.000000
58.107480 1446.000000
58.127230 1420.000000
58.146980 1485.000000
58.166730 1406.000000
58.186480 1411.000000
58.206230 1442.000000
58.225980 1480.000000
58.245730 1398.000000
58.265480 1436.000000
58.285230 1439.000000
58.304980 1459.000000
58.324730 1461.000000
58.344480 1531.000000
58.364230 1531.000000
58.383980 1446.000000
58.403730 1502.000000
58.423480 1578.000000
58.443230 1534.000000
58.462980 1527.000000
58.482730 1515.000000
58.502480 1506.000000
58.522230 1568.000000
58.541980 1509.000000
58.561730 1552.000000
58.581480 1603.000000
58.601230 1718.000000
58.620980 1640.000000
58.640730 1717.000000
58.660480 1813.000000
58.680230 1832.000000
58.699980 1982.000000
58.719730 2020.000000
58.739480 2154.000000
58.759230 2249.000000
58.778980 2261.000000
58.798730 2279.000000
58.818480 2206.000000
58.838230 2294.000000
58.857980 2176.000000
58.877730 2170.000000
58.897480 2175.000000
58.917230 2162.000000
58.936980 2133.000000
58.956730 2119.000000
58.976480 2125.000000
58.996230 1864.000000
59.015980 1838.000000
59.035730 1834.000000
59.055480 1794.000000
59.075230 1705.000000
59.094980 1747.000000
59.114730 1657.000000
59.134480 1628.000000
59.154230 1611.000000
59.173980 1582.000000
59.193730 1570.000000
59.213480 1574.000000
59.233230 1559.000000
59.252980 1515.000000
59.272730 1515.000000
59.292480 1508.000000
59.312230 1546.000000
59.331970 1546.000000
59.351720 1543.000000
59.371470 1519.000000
59.391220 1481.000000
59.410970 1506.000000
59.430720 1487.000000
59.450470 1480.000000
59.470220 1377.000000
59.489970 1434.000000
59.509720 1379.000000
59.529470 1410.000000
59.549220 1402.000000
59.568970 1424.000000
59.588720 1408.000000
59.608470 1365.000000
59.628220 1411.000000
59.647970 1386.000000
59.667720 1458.000000
59.687470 1397.000000
59.707220 1423.000000
59.726970 1382.000000
59.746720 1378.000000
59.766470 1401.000000
59.786220 1388.000000
59.805970 1378.000000
59.825720 1380.000000
59.845470 1352.000000
59.865220 1309.000000
59.884970 1430.000000
59.904720 1414.000000
59.924470 1312.000000
59.944220 1325.000000
59.963970 1273.000000
59.983720 1346.000000
60.003470 1305.000000
60.023220 1276.000000
60.042970 1271.000000
60.062720 1339.000000
60.082470 1325.000000
60.102220 1361.000000
60.121970 1334.000000
60.141720 1306.000000
60.161470 1358.000000
60.181220 1360.000000
60.200970 1368.000000
60.220720 1332.000000
60.240470 1374.000000
60.260220 1352.000000
60.279970 1345.000000
60.299720 1459.000000
60.319470 1367.000000
60.339220 1393.000000
60.358970 1373.000000
60.378720 1392.000000
60.398470 1386.000000
60.418220 1404.000000
60.437970 1387.000000
60.457720 1387.000000
60.477470 1398.000000
60.497220 1411.000000
60.516970 1358.000000
60.536720 1358.000000
60.556470 1365.000000
60.576220 1404.000000
60.595970 1440.000000
60.615720 1442.000000
60.635470 1417.000000
60.655220 1484.000000
60.674970 1413.000000
60.694720 1430.000000
60.714470 1427.000000
60.734220 1525.000000
60.753970 1530.000000
60.773720 1476.000000
60.793470 1590.000000
60.813220 1676.000000
60.832970 1732.000000
60.852720 1739.000000
60.872470 1863.000000
60.892220 1864.000000
60.911970 1838.000000
60.931720 1979.000000
60.951470 1989.000000
60.971220 1921.000000
60.990970 1880.000000
61.010720 2062.000000
61.030470 1882.000000
61.050220 1868.000000
61.069970 1875.000000
61.089720 1799.000000
61.109470 1786.000000
61.129220 1833.000000
61.148970 1762.000000
61.168720 1692.000000
61.188470 1721.000000
61.208220 1720.000000
61.227970 1690.000000
61.247720 1667.000000
61.267470 1756.000000
61.287220 1671.000000
61.306960 1680.000000
61.326710 1721.000000
61.346460 1723.000000
61.366210 1865.000000
61.385960 1811.000000
61.405710 1813.000000
61.425460 1808.000000
61.445210 1923.000000
61.464960 1883.000000
61.484710 1827.000000
61.504460 1838.000000
61.524210 1958.000000
61.543960 1853.000000
61.563710 1944.000000
61.583460 1888.000000
61.603210 1816.000000
61.622960 1821.000000
61.642710 1791.000000
61.662460 1829.000000
61.682210 1758.000000
61.701960 1795.000000
61.721710 1797.000000
61.741460 1733.000000
61.761210 1723.000000
61.780960 1657.000000
61.800710 1623.000000
61.820460 1637.000000
61.840210 1612.000000
61.859960 1571.000000
61.879710 1579.000000
61.899460 1599.000000
61.919210 1609.000000
61.938960 1659.000000
61.958710 1594.000000
61.978460 1694.000000
61.998210 1629.000000
62.017960 1587.000000
62.037710 1587.000000
62.057460 1554.000000
62.077210 1545.000000
62.096960 1475.000000
62.116710 1497.000000
62.136460 1534.000000
62.156210 1563.000000
62.175960 1557.000000
62.195710 1482.000000
62.215460 1484.000000
62.235210 1484.000000
62.254960 1478.000000
62.274710 1427.000000
62.294460 1403.000000
62.314210 1348.000000
62.333960 1348.000000
62.353710 1418.000000
62.373460 1354.000000
62.393210 1352.000000
62.412960 1288.000000
62.432710 1296.000000
62.452460 1324.000000
62.472210 1348.000000
62.491960 1313.000000
62.511710 1347.000000
62.531460 1343.000000
62.551210 1296.000000
62.570960 1331.000000
62.590710 1300.000000
62.610460 1427.000000
62.630210 1426.000000
62.649960 1299.000000
62.669710 1377.000000
62.689460 1343.000000
62.709210 1418.000000
62.728960 1429.000000
62.748710 1485.000000
62.768460 1527.000000
62.788210 1554.000000
62.807960 1645.000000
62.827710 1744.000000
62.847460 1731.000000
62.867210 1729.000000
62.886960 1869.000000
62.906710 1824.000000
62.926460 1813.000000
62.946210 1876.000000
62.965960 1944.000000
62.985710 1878.000000
63.005460 1888.000000
63.025210 1867.000000
63.044960 1894.000000
63.064710 1893.000000
63.084460 1856.000000
63.104210 1734.000000
63.123960 1741.000000
63.143710 1831.000000
63.163460 1747.000000
63.183210 1640.000000
63.202960 1471.000000
63.222710 1588.000000
63.242460 1583.000000
63.262210 1524.000000
63.281950 1492.000000
63.301700 1408.000000
63.321450 1413.000000
63.341200 1346.000000
63.360950 1395.000000
63.380700 1367.000000
63.400450 1336.000000
63.420200 1328.000000
63.439950 1366.000000
63.459700 1346.000000
63.479450 1351.000000
63.499200 1418.000000
63.518950 1389.000000
63.538700 1420.000000
63.558450 1445.000000
63.578200 1377.000000
63.597950 1381.000000
63.617700 1364.000000
63.637450 1371.000000
63.657200 1375.000000
63.676950 1385.000000
63.696700 1412.000000
63.716450 1327.000000
63.736200 1312.000000
63.755950 1387.000000
63.775700 1347.000000
63.795450 1327.000000
63.815200 1278.000000
63.834950 1301.000000
63.854700 1278.000000
63.874450 1291.000000
63.894200 1297.000000
63.913950 1305.000000
63.933700 1291.000000
63.953450 1227.000000
63.973200 1236.000000
63.992950 1201.000000
64.012700 1262.000000
64.032450 1208.000000
64.052200 1227.000000
64.071950 1282.000000
64.091700 1252.000000
64.111450 1241.000000
64.131200 1264.000000
64.150950 1217.000000
64.170700 1251.000000
64.190450 1249.000000
64.210200 1302.000000
64.229950 1255.000000
64.249700 1248.000000
64.269450 1241.000000
64.289200 1267.000000
64.308950 1237.000000
64.328700 1241.000000
64.348450 1300.000000
64.368200 1304.000000
64.387950 1314.000000
64.407700 1267.000000
64.427450 1270.000000
64.447200 1275.000000
64.466950 1316.000000
64.486700 1379.000000
64.506450 1327.000000
64.526200 1382.000000
64.545950 1369.000000
64.565700 1371.000000
64.585450 1361.000000
64.605200 1282.000000
64.624950 1353.000000
64.644700 1303.000000
64.664450 1327.000000
64.684200 1347.000000
64.703950 1401.000000
64.723700 1341.000000
64.743450 1337.000000
64.763200 1302.000000
64.782950 1312.000000
64.802700 1340.000000
64.822450 1293.000000
64.842200 1366.000000
64.861950 1448.000000
64.881700 1328.000000
64.901450 1405.000000
64.921200 1315.000000
64.940950 1338.000000
64.960700 1429.000000
64.980450 1367.000000
65.000200 1350.000000
65.019950 1396.000000
65.039700 1393.000000
65.059450 1393.000000
65.079200 1389.000000
65.098950 1434.000000
65.118700 1479.000000
65.138450 1525.000000
65.158200 1481.000000
65.177950 1528.000000
65.197700 1631.000000
65.217450 1729.000000
65.237200 1767.000000
65.256940 1808.000000
65.276690 1872.000000
65.296440 1832.000000
65.316190 1761.000000
65.335940 1726.000000
65.355690 1703.000000
65.375440 1738.000000
65.395190 1592.000000
65.414940 1534.000000
65.434690 1616.000000
65.454440 1523.000000
65.474190 1505.000000
65.493940 1565.000000
65.513690 1464.000000
65.533440 1457.000000
65.553190 1407.000000
65.572940 1370.000000
65.592690 1408.000000
65.612440 1328.000000
65.632190 1357.000000
65.651940 1440.000000
65.671690 1356.000000
65.691440 1364.000000
65.711190 1405.000000
65.730940 1360.000000
65.750690 1335.000000
65.770440 1365.000000
65.790190 1299.000000
65.809940 1398.000000
65.829690 1387.000000
65.849440 1387.000000
65.869190 1375.000000
65.888940 1400.000000
65.908690 1473.000000
65.928440 1419.000000
65.948190 1426.000000
65.967940 1491.000000
65.987690 1521.000000
66.007440 1505.000000
66.027190 1606.000000
66.046940 1644.000000
66.066690 1786.000000
66.086440 1797.000000
66.106190 1735.000000
66.125940 1798.000000
66.145690 1744.000000
66.165440 1722.000000
66.185190 1687.000000
66.204940 1613.000000
66.224690 1608.000000
66.244440 1496.000000
66.264190 1565.000000
66.283940 1625.000000
66.303690 1617.000000
66.323440 1538.000000
66.343190 1496.000000
66.362940 1501.000000
66.382690 1393.000000
66.402440 1422.000000
66.422190 1358.000000
66.441940 1349.000000
66.461690 1345.000000
66.481440 1373.000000
66.501190 1357.000000
66.520940 1296.000000
66.540690 1291.000000
66.560440 1262.000000
66.580190 1252.000000
66.599940 1252.000000
66.619690 1204.000000
66.639440 1278.000000
66.659190 1195.000000
66.678940 1208.000000
66.698690 1174.000000
66.718440 1237.000000
66.738190 1273.000000
66.757940 1159.000000
66.777690 1188.000000
66.797440 1246.000000
66.817190 1250.000000
66.836940 1257.000000
66.856690 1279.000000
66.876440 1245.000000
66.896190 1233.000000
66.915940 1296.000000
66.935690 1236.000000
66.955440 1286.000000
66.975190 1278.000000
66.994940 1269.000000
67.014690 1191.000000
67.034440 1295.000000
67.054190 1345.000000
67.073940 1319.000000
67.093690 1239.000000
67.113440 1275.000000
67.133190 1278.000000
67.152940 1277.000000
67.172690 1251.000000
67.192440 1258.000000
67.212190 1228.000000
67.231930 1274.000000
67.251680 1289.000000
67.271430 1208.000000
67.291180 1291.000000
67.310930 1282.000000
67.330680 1230.000000
67.350430 1224.000000
67.370180 1201.000000
67.389930 1219.000000
67.409680 1240.000000
67.429430 1201.000000
67.449180 1234.000000
67.468930 1238.000000
67.488680 1210.000000
67.508430 1180.000000
67.528180 1164.000000
67.547930 1231.000000
67.567680 1223.000000
67.587430 1210.000000
67.607180 1163.000000
67.626930 1192.000000
67.646680 1236.000000
67.666430 1256.000000
67.686180 1203.000000
67.705930 1134.000000
67.725680 1199.000000
67.745430 1192.000000
67.765180 1219.000000
67.784930 1274.000000
67.804680 1175.000000
67.824430 1256.000000
67.844180 1212.000000
67.863930 1214.000000
67.883680 1244.000000
67.903430 1221.000000
67.923180 1209.000000
67.942930 1198.000000
67.962680 1254.000000
67.982430 1219.000000
68.002180 1248.000000
68.021930 1250.000000
68.041680 1262.000000
68.061430 1217.000000
68.081180 1226.000000
68.100930 1237.000000
68.120680 1303.000000
68.140430 1242.000000
68.160180 1295.000000
68.179930 1234.000000
68.199680 1262.000000
68.219430 1243.000000
68.239180 1206.000000
68.258930 1230.000000
68.278680 1188.000000
68.298430 1249.000000
68.318180 1248.000000
68.337930 1243.000000
68.357680 1273.000000
68.377430 1202.000000
68.397180 1243.000000
68.416930 1252.000000
68.436680 1253.000000
68.456430 1284.000000
68.476180 1291.000000
68.495930 1290.000000
68.515680 1321.000000
68.535430 1414.000000
68.555180 1374.000000
68.574930 1342.000000
68.594680 1297.000000
68.614430 1398.000000
68.634180 1353.000000
68.653930 1301.000000
68.673680 1324.000000
68.693430 1376.000000
68.713180 1303.000000
68.732930 1258.000000
68.752680 1261.000000
68.772430 1326.000000
68.792180 1278.000000
68.811930 1240.000000
68.831680 1251.000000
68.851430 1242.000000
68.871180 1237.000000
68.890930 1286.000000
68.910680 1238.000000
68.930430 1221.000000
68.950180 1212.000000
68.969930 1222.000000
68.989680 1227.000000
69.009430 1176.000000
69.029180 1258.000000
69.048930 1189.000000
69.068680 1307.000000
69.088430 1226.000000
69.108180 1276.000000
69.127930 1243.000000
69.147680 1157.000000
69.167430 1231.000000
69.187180 1244.000000
69.206920 1286.000000
69.226670 1201.000000
69.246420 1225.000000
69.266170 1232.000000
69.285920 1190.000000
69.305670 1226.000000
69.325420 1199.000000
69.345170 1227.000000
69.364920 1264.000000
69.384670 1220.000000
69.404420 1273.000000
69.424170 1275.000000
69.443920 1249.000000
69.463670 1250.000000
69.483420 1257.000000
69.503170 1239.000000
69.522920 1266.000000
69.542670 1234.000000
69.562420 1316.000000
69.582170 1294.000000
69.601920 1255.000000
69.621670 1331.000000
69.641420 1334.000000
69.661170 1306.000000
69.680920 1312.000000
69.700670 1425.000000
69.720420 1493.000000
69.740170 1481.000000
69.759920 1512.000000
69.779670 1564.000000
69.799420 1660.000000
69.819170 1720.000000
69.838920 1681.000000
69.858670 1781.000000
69.878420 1670.000000
69.898170 1683.000000
69.917920 1691.000000
69.937670 1635.000000
69.957420 1688.000000
69.977170 1654.000000
69.996920 1602.000000
70.016670 1630.000000
70.036420 1568.000000
70.056170 1597.000000
70.075920 1507.000000
70.095670 1557.000000
70.115420 1436.000000
70.135170 1433.000000
70.154920 1397.000000
70.174670 1420.000000
70.194420 1373.000000
70.214170 1382.000000
70.233920 1319.000000
70.253670 1297.000000
70.273420 1383.000000
70.293170 1262.000000
70.312920 1247.000000
70.332670 1283.000000
70.352420 1309.000000
70.372170 1246.000000
70.391920 1312.000000
70.411670 1314.000000
70.431420 1354.000000
70.451170 1320.000000
70.470920 1339.000000
70.490670 1397.000000
70.510420 1352.000000
70.530170 1308.000000
70.549920 1318.000000
70.569670 1403.000000
70.589420 1370.000000
70.609170 1338.000000
70.628920 1358.000000
70.648670 1375.000000
70.668420 1401.000000
70.688170 1409.000000
70.707920 1389.000000
70.727670 1279.000000
70.747420 1407.000000
70.767170 1292.000000
70.786920 1362.000000
70.806670 1368.000000
70.826420 1340.000000
70.846170 1319.000000
70.865920 1438.000000
70.885670 1408.000000
70.905420 1337.000000
70.925170 1423.000000
70.944920 1408.000000
70.964670 1445.000000
70.984420 1467.000000
71.004170 1427.000000
71.023920 1411.000000
71.043670 1488.000000
71.063420 1503.000000
71.083170 1482.000000
71.102920 1476.000000
71.122670 1515.000000
71.142420 1554.000000
71.162170 1554.000000
71.181910 1550.000000
71.201660 1539.000000
71.221410 1526.000000
71.241160 1526.000000
71.260910 1532.000000
71.280660 1635.000000
71.300410 1598.000000
71.320160 1638.000000
71.339910 1619.000000
71.359660 1662.000000
71.379410 1629.000000
71.399160 1630.000000
71.418910 1544.000000
71.438660 1536.000000
71.458410 1597.000000
71.478160 1558.000000
71.497910 1601.000000
71.517660 1605.000000
71.537410 1552.000000
71.557160 1511.000000
71.576910 1520.000000
71.596660 1485.000000
71.616410 1465.000000
71.636160 1486.000000
71.655910 1555.000000
71.675660 1422.000000
71.695410 1415.000000
71.715160 1392.000000
71.734910 1425.000000
71.754660 1347.000000
71.774410 1337.000000
71.794160 1369.000000
71.813910 1347.000000
71.833660 1347.000000
71.853410 1317.000000
71.873160 1302.000000
71.892910 1320.000000
71.912660 1251.000000
71.932410 1275.000000
71.952160 1239.000000
71.971910 1239.000000
71.991660 1231.000000
72.011410 1231.000000
72.031160 1221.000000
72.050910 1261.000000
72.070660 1267.000000
72.090410 1305.000000
72.110160 1348.000000
72.129910 1355.000000
72.149660 1307.000000
72.169410 1368.000000
72.189160 1295.000000
72.208910 1386.000000
72.228660 1340.000000
72.248410 1416.000000
72.268160 1416.000000
72.287910 1434.000000
72.307660 1433.000000
72.327410 1505.000000
72.347160 1419.000000
72.366910 1406.000000
72.386660 1416.000000
72.406410 1443.000000
72.426160 1384.000000
72.445910 1414.000000
72.465660 1422.000000
72.485410 1445.000000
72.505160 1327.000000
72.524910 1387.000000
72.544660 1383.000000
72.564410 1333.000000
72.584160 1362.000000
72.603910 1391.000000
72.623660 1324.000000
72.643410 1325.000000
72.663160 1327.000000
72.682910 1290.000000
72.702660 1337.000000
72.722410 1369.000000
72.742160 1338.000000
72.761910 1352.000000
72.781660 1323.000000
72.801410 1340.000000
72.821160 1478.000000
72.840910 1459.000000
72.860660 1399.000000
72.880410 1420.000000
72.900160 1488.000000
72.919910 1477.000000
72.939660 1431.000000
72.959410 1404.000000
72.979160 1412.000000
72.998910 1289.000000
73.018660 1382.000000
73.038410 1418.000000
73.058160 1371.000000
73.077910 1448.000000
73.097660 1381.000000
73.117410 1386.000000
73.137160 1357.000000
73.156900 1296.000000
73.176650 1286.000000
73.196400 1314.000000
73.216150 1353.000000
73.235900 1337.000000
73.255650 1263.000000
73.275400 1337.000000
73.295150 1313.000000
73.314900 1327.000000
73.334650 1365.000000
73.354400 1285.000000
73.374150 1355.000000
73.393900 1383.000000
73.413650 1493.000000
73.433400 1423.000000
73.453150 1343.000000
73.472900 1464.000000
73.492650 1535.000000
73.512400 1524.000000
73.532150 1455.000000
73.551900 1550.000000
73.571650 1580.000000
73.591400 1603.000000
73.611150 1670.000000
73.630900 1626.000000
73.650650 1706.000000
73.670400 1774.000000
73.690150 1727.000000
73.709900 1940.000000
73.729650 1972.000000
73.749400 2172.000000
73.769150 2322.000000
73.788900 2565.000000
73.808650 2674.000000
73.828400 2870.000000
73.848150 2809.000000
73.867900 2867.000000
73.887650 2824.000000
73.907400 2796.000000
73.927150 2698.000000
73.946900 2569.000000
73.966650 2507.000000
73.986400 2439.000000
74.006150 2527.000000
74.025900 2484.000000
74.045650 2554.000000
74.065400 2523.000000
74.085150 2401.000000
74.104900 2306.000000
74.124650 2301.000000
74.144400 2116.000000
74.164150 2057.000000
74.183900 1913.000000
74.203650 1880.000000
74.223400 1807.000000
74.243150 1788.000000
74.262900 1667.000000
74.282650 1589.000000
74.302400 1513.000000
74.322150 1552.000000
74.341900 1519.000000
74.361650 1482.000000
74.381400 1453.000000
74.401150 1417.000000
74.420900 1434.000000
74.440650 1392.000000
74.460400 1369.000000
74.480150 1427.000000
74.499900 1357.000000
74.519650 1302.000000
74.539400 1369.000000
74.559150 1342.000000
74.578900 1309.000000
74.598650 1290.000000
74.618400 1420.000000
74.638150 1329.000000
74.657900 1261.000000
74.677650 1323.000000
74.697400 1389.000000
74.717150 1355.000000
74.736900 1361.000000
74.756650 1382.000000
74.776400 1306.000000
74.796150 1378.000000
74.815900 1369.000000
74.835650 1228.000000
74.855400 1312.000000
74.875150 1276.000000
74.894900 1290.000000
74.914650 1435.000000
74.934400 1323.000000
74.954150 1389.000000
74.973900 1320.000000
74.993650 1375.000000
75.013400 1362.000000
75.033150 1421.000000
75.052900 1473.000000
75.072650 1421.000000
75.092400 1415.000000
75.112150 1501.000000
75.131890 1478.000000
75.151640 1561.000000
75.171390 1595.000000
75.191140 1677.000000
75.210890 1676.000000
75.230640 1771.000000
75.250390 1847.000000
75.270140 1811.000000
75.289890 1819.000000
75.309640 1791.000000
75.329390 1836.000000
75.349140 1667.000000
75.368890 1719.000000
75.388640 1662.000000
75.408390 1722.000000
75.428140 1700.000000
75.447890 1653.000000
75.467640 1639.000000
75.487390 1587.000000
75.507140 1592.000000
75.526890 1556.000000
75.546640 1414.000000
75.566390 1393.000000
75.586140 1420.000000
75.605890 1322.000000
75.625640 1317.000000
75.645390 1311.000000
75.665140 1343.000000
75.684890 1283.000000
75.704640 1290.000000
75.724390 1271.000000
75.744140 1295.000000
75.763890 1281.000000
75.783640 1336.000000
75.803390 1220.000000
75.823140 1266.000000
75.842890 1260.000000
75.862640 1283.000000
75.882390 1254.000000
75.902140 1283.000000
75.921890 1253.000000
75.941640 1251.000000
75.961390 1310.000000
75.981140 1304.000000
76.000890 1282.000000
76.020640 1317.000000
76.040390 1342.000000
76.060140 1364.000000
76.079890 1329.000000
76.099640 1368.000000
76.119390 1424.000000
76.139140 1390.000000
76.158890 1446.000000
76.178640 1488.000000
76.198390 1561.000000
76.218140 1534.000000
76.237890 1526.000000
76.257640 1522.000000
76.277390 1502.000000
76.297140 1449.000000
76.316890 1536.000000
76.336640 1521.000000
76.356390 1538.000000
76.376140 1610.000000
76.395890 1645.000000
76.415640 1666.000000
76.435390 1681.000000
76.455140 1619.000000
76.474890 1551.000000
76.494640 1559.000000
76.514390 1537.000000
76.534140 1574.000000
76.553890 1450.000000
76.573640 1431.000000
76.593390 1422.000000
76.613140 1397.000000
76.632890 1392.000000
76.652640 1406.000000
76.672390 1354.000000
76.692140 1375.000000
76.711890 1336.000000
76.731640 1395.000000
76.751390 1387.000000
76.771140 1363.000000
76.790890 1329.000000
76.810640 1301.000000
76.830390 1202.000000
76.850140 1221.000000
76.869890 1261.000000
76.889640 1289.000000
76.909390 1304.000000
76.929140 1182.000000
76.948890 1191.000000
76.968640 1188.000000
76.988390 1250.000000
77.008140 1219.000000
77.027890 1303.000000
77.047640 1247.000000
77.067390 1201.000000
77.087140 1262.000000
77.106880 1246.000000
77.126630 1192.000000
77.146380 1224.000000
77.166130 1250.000000
77.185880 1289.000000
77.205630 1257.000000
77.225380 1274.000000
77.245130 1288.000000
77.264880 1215.000000
77.284630 1192.000000
77.304380 1257.000000
77.324130 1275.000000
77.343880 1306.000000
77.363630 1255.000000
77.383380 1302.000000
77.403130 1271.000000
77.422880 1238.000000
77.442630 1256.000000
77.462380 1280.000000
77.482130 1258.000000
77.501880 1263.000000
77.521630 1252.000000
77.541380 1271.000000
77.561130 1228.000000
77.580880 1253.000000
77.600630 1206.000000
77.620380 1254.000000
77.640130 1259.000000
77.659880 1266.000000
77.679630 1297.000000
77.699380 1237.000000
77.719130 1227.000000
77.738880 1167.000000
77.758630 1258.000000
77.778380 1239.000000
77.798130 1218.000000
77.817880 1213.000000
77.837630 1250.000000
77.857380 1233.000000
77.877130 1221.000000
77.896880 1208.000000
77.916630 1340.000000
77.936380 1244.000000
77.956130 1294.000000
77.975880 1254.000000
77.995630 1231.000000
78.015380 1264.000000
78.035130 1264.000000
78.054880 1320.000000
78.074630 1302.000000
78.094380 1251.000000
78.114130 1183.000000
78.133880 1288.000000
78.153630 1276.000000
78.173380 1232.000000
78.193130 1225.000000
78.212880 1251.000000
78.232630 1253.000000
78.252380 1268.000000
78.272130 1230.000000
78.291880 1270.000000
78.311630 1247.000000
78.331380 1266.000000
78.351130 1270.000000
78.370880 1271.000000
78.390630 1249.000000
78.410380 1294.000000
78.430130 1302.000000
78.449880 1287.000000
78.469630 1240.000000
78.489380 1307.000000
78.509130 1337.000000
78.528880 1329.000000
78.548630 1400.000000
78.568380 1355.000000
78.588130 1383.000000
78.607880 1339.000000
78.627630 1440.000000
78.647380 1438.000000
78.667130 1453.000000
78.686880 1451.000000
78.706630 1497.000000
78.726380 1476.000000
78.746130 1465.000000
78.765880 1483.000000
78.785630 1462.000000
78.805380 1445.000000
78.825130 1417.000000
78.844880 1484.000000
78.864630 1405.000000
78.884380 1424.000000
78.904130 1385.000000
78.923880 1372.000000
78.943630 1342.000000
78.963380 1306.000000
78.983130 1291.000000
79.002880 1315.000000
79.022630 1315.000000
79.042380 1365.000000
79.062130 1310.000000
79.081870 1292.000000
79.101620 1223.000000
79.121370 1285.000000
79.141120 1230.000000
79.160870 1217.000000
79.180620 1194.000000
79.200370 1224.000000
79.220120 1146.000000
79.239870 1184.000000
79.259620 1190.000000
79.279370 1169.000000
79.299120 1142.000000
79.318870 1213.000000
79.338620 1131.000000
79.358370 1119.000000
79.378120 1206.000000
79.397870 1256.000000
79.417620 1266.000000
79.437370 1186.000000
79.457120 1143.000000
79.476870 1217.000000
79.496620 1135.000000
79.516370 1186.000000
79.536120 1159.000000
79.555870 1197.000000
79.575620 1253.000000
79.595370 1171.000000
79.615120 1186.000000
79.634870 1149.000000
79.654620 1191.000000
79.674370 1159.000000
79.694120 1210.000000
79.713870 1172.000000
79.733620 1137.000000
79.753370 1202.000000
79.773120 1174.000000
79.792870 1169.000000
79.812620 1126.000000
79.832370 1131.000000
79.852120 1162.000000
79.871870 1152.000000
79.891620 1159.000000
79.911370 1174.000000
79.931120 1130.000000
79.950870 1209.000000
79.970620 1229.000000
79.990370 1142.000000
80.010120 1161.000000
80.029870 1137.000000
80.049620 1177.000000
80.069370 1191.000000
80.089120 1261.000000
80.108870 1207.000000
80.128620 1208.000000
80.148370 1152.000000
80.168120 1141.000000
80.187870 1156.000000
80.207620 1168.000000
80.227370 1198.000000
80.247120 1173.000000
80.266870 1174.000000
80.286620 1178.000000
80.306370 1113.000000
80.326120 1171.000000
80.345870 1150.000000
80.365620 1177.000000
80.385370 1132.000000
80.405120 1126.000000
80.424870 1220.000000
80.444620 1125.000000
80.464370 1203.000000
80.484120 1177.000000
80.503870 1140.000000
80.523620 1133.000000
80.543370 1140.000000
80.563120 1114.000000
80.582870 1139.000000
80.602620 1160.000000
80.622370 1153.000000
80.642120 1225.000000
80.661870 1221.000000
80.681620 1209.000000
80.701370 1185.000000
80.721120 1147.000000
80.740870 1147.000000
80.760620 1149.000000
80.780370 1166.000000
80.800120 1215.000000
80.819870 1213.000000
80.839620 1242.000000
80.859370 1221.000000
80.879120 1231.000000
80.898870 1265.000000
80.918620 1291.000000
80.938370 1379.000000
80.958120 1281.000000
80.977870 1307.000000
80.997620 1356.000000
81.017370 1362.000000
81.037120 1351.000000
81.056860 1349.000000
81.076610 1415.000000
81.096360 1389.000000
81.116110 1363.000000
81.135860 1329.000000
81.155610 1340.000000
81.175360 1369.000000
81.195110 1321.000000
81.214860 1328.000000
81.234610 1329.000000
81.254360 1393.000000
81.274110 1386.000000
81.293860 1387.000000
81.313610 1389.000000
81.333360 1294.000000
81.353110 1359.000000
81.372860 1331.000000
81.392610 1303.000000
81.412360 1247.000000
81.432110 1288.000000
81.451860 1306.000000
81.471610 1303.000000
81.491360 1239.000000
81.511110 1284.000000
81.530860 1252.000000
81.550610 1186.000000
81.570360 1251.000000
81.590110 1202.000000
81.609860 1142.000000
81.629610 1171.000000
81.649360 1168.000000
81.669110 1248.000000
81.688860 1225.000000
81.708610 1218.000000
81.728360 1144.000000
81.748110 1201.000000
81.767860 1183.000000
81.787610 1124.000000
81.807360 1159.000000
81.827110 1177.000000
81.846860 1153.000000
81.866610 1165.000000
81.886360 1148.000000
81.906110 1151.000000
81.925860 1195.000000
81.945610 1155.000000
81.965360 1165.000000
81.985110 1162.000000
82.004860 1171.000000
82.024610 1181.000000
82.044360 1130.000000
82.064110 1143.000000
82.083860 1165.000000
82.103610 1125.000000
82.123360 1136.000000
82.143110 1139.000000
82.162860 1189.000000
82.182610 1143.000000
82.202360 1163.000000
82.222110 1181.000000
82.241860 1212.000000
82.261610 1110.000000
82.281360 1161.000000
82.301110 1143.000000
82.320860 1176.000000
82.340610 1121.000000
82.360360 1137.000000
82.380110 1266.000000
82.399860 1166.000000
82.419610 1191.000000
82.439360 1168.000000
82.459110 1162.000000
82.478860 1190.000000
82.498610 1179.000000
82.518360 1119.000000
82.538110 1144.000000
82.557860 1138.000000
82.577610 1201.000000
82.597360 1142.000000
82.617110 1256.000000
82.636860 1211.000000
82.656610 1202.000000
82.676360 1258.000000
82.696110 1234.000000
82.715860 1248.000000
82.735610 1182.000000
82.755360 1235.000000
82.775110 1261.000000
82.794860 1242.000000
82.814610 1236.000000
82.834360 1324.000000
82.854110 1328.000000
82.873860 1272.000000
82.893610 1274.000000
82.913360 1247.000000
82.933110 1306.000000
82.952860 1258.000000
82.972610 1295.000000
82.992360 1361.000000
83.012110 1268.000000
83.031850 1296.000000
83.051600 1262.000000
83.071350 1375.000000
83.091100 1290.000000
83.110850 1259.000000
83.130600 1300.000000
83.150350 1423.000000
83.170100 1307.000000
83.189850 1246.000000
83.209600 1347.000000
83.229350 1301.000000
83.249100 1247.000000
83.268850 1281.000000
83.288600 1334.000000
83.308350 1337.000000
83.328100 1381.000000
83.347850 1416.000000
83.367600 1376.000000
83.387350 1409.000000
83.407100 1376.000000
83.426850 1445.000000
83.446600 1456.000000
83.466350 1433.000000
83.486100 1368.000000
83.505850 1368.000000
83.525600 1334.000000
83.545350 1402.000000
83.565100 1382.000000
83.584850 1302.000000
83.604600 1341.000000
83.624350 1431.000000
83.644100 1373.000000
83.663850 1339.000000
83.683600 1376.000000
83.703350 1305.000000
83.723100 1330.000000
83.742850 1285.000000
83.762600 1334.000000
83.782350 1262.000000
83.802100 1312.000000
83.821850 1389.000000
83.841600 1347.000000
83.861350 1379.000000
83.881100 1312.000000
83.900850 1387.000000
83.920600 1417.000000
83.940350 1475.000000
83.960100 1496.000000
83.979850 1504.000000
83.999600 1437.000000
84.019350 1449.000000
84.039100 1470.000000
84.058850 1486.000000
84.078600 1388.000000
84.098350 1464.000000
84.118100 1399.000000
84.137850 1316.000000
84.157600 1297.000000
84.177350 1394.000000
84.197100 1392.000000
84.216850 1353.000000
84.236600 1383.000000
84.256350 1276.000000
84.276100 1271.000000
84.295850 1331.000000
84.315600 1313.000000
84.335350 1245.000000
84.355100 1208.000000
84.374850 1172.000000
84.394600 1148.000000
84.414350 1197.000000
84.434100 1229.000000
84.453850 1172.000000
84.473600 1179.000000
84.493350 1160.000000
84.513100 1161.000000
84.532850 1101.000000
84.552600 1168.000000
84.572350 1149.000000
84.592100 1151.000000
84.611850 1112.000000
84.631600 1129.000000
84.651350 1124.000000
84.671100 1132.000000
84.690850 1075.000000
84.710600 1092.000000
84.730350 1056.000000
84.750100 1170.000000
84.769850 1166.000000
84.789600 1259.000000
84.809350 1071.000000
84.829100 1125.000000
84.848850 1135.000000
84.868600 1106.000000
84.888350 1078.000000
84.908100 1084.000000
84.927850 1185.000000
84.947600 1112.000000
84.967350 1124.000000
84.987100 1130.000000
85.006840 1105.000000
85.026590 1057.000000
85.046340 1179.000000
85.066090 1067.000000
85.085840 1163.000000
85.105590 1150.000000
85.125340 1130.000000
85.145090 1124.000000
85.164840 1135.000000
85.184590 1128.000000
85.204340 1174.000000
85.224090 1181.000000
85.243840 1241.000000
85.263590 1249.000000
85.283340 1333.000000
85.303090 1300.000000
85.322840 1267.000000
85.342590 1352.000000
85.362340 1398.000000
85.382090 1368.000000
85.401840 1419.000000
85.421590 1500.000000
85.441340 1480.000000
85.461090 1470.000000
85.480840 1498.000000
85.500590 1465.000000
85.520340 1503.000000
85.540090 1526.000000
85.559840 1398.000000
85.579590 1409.000000
85.599340 1382.000000
85.619090 1436.000000
85.638840 1379.000000
85.658590 1375.000000
85.678340 1378.000000
85.698090 1367.000000
85.717840 1365.000000
85.737590 1374.000000
85.757340 1403.000000
85.777090 1388.000000
85.796840 1349.000000
85.816590 1352.000000
85.836340 1339.000000
85.856090 1199.000000
85.875840 1255.000000
85.895590 1288.000000
85.915340 1255.000000
85.935090 1225.000000
85.954840 1254.000000
85.974590 1278.000000
85.994340 1262.000000
86.014090 1332.000000
86.033840 1321.000000
86.053590 1232.000000
86.073340 1353.000000
86.093090 1317.000000
86.112840 1361.000000
86.132590 1396.000000
86.152340 1332.000000
86.172090 1342.000000
86.191840 1359.000000
86.211590 1319.000000
86.231340 1263.000000
86.251090 1281.000000
86.270840 1258.000000
86.290590 1320.000000
86.310340 1224.000000
86.330090 1192.000000
86.349840 1321.000000
86.369590 1241.000000
86.389340 1231.000000
86.409090 1288.000000
86.428840 1266.000000
86.448590 1179.000000
86.468340 1173.000000
86.488090 1264.000000
86.507840 1208.000000
86.527590 1215.000000
86.547340 1175.000000
86.567090 1160.000000
86.586840 1201.000000
86.606590 1163.000000
86.626340 1256.000000
86.646090 1184.000000
86.665840 1103.000000
86.685590 1100.000000
86.705340 1149.000000
86.725090 1098.000000
86.744840 1105.000000
86.764590 1105.000000
86.784340 1121.000000
86.804090 1123.000000
86.823840 1142.000000
86.843590 1091.000000
86.863340 1092.000000
86.883090 1119.000000
86.902840 1088.000000
86.922590 1103.000000
86.942340 1062.000000
86.962090 1102.000000
86.981830 1064.000000
87.001580 1090.000000
87.021330 1142.000000
87.041080 1143.000000
87.060830 1088.000000
87.080580 1016.000000
87.100330 1100.000000
87.120080 1101.000000
87.139830 1040.000000
87.159580 1064.000000
87.179330 1147.000000
87.199080 1067.000000
87.218830 957.000000
87.238580 1053.000000
87.258330 1125.000000
87.278080 1049.000000
87.297830 1075.000000
87.317580 1091.000000
87.337330 1006.000000
87.357080 1102.000000
87.376830 1075.000000
87.396580 1108.000000
87.416330 1114.000000
87.436080 1094.000000
87.455830 1065.000000
87.475580 1141.000000
87.495330 1163.000000
87.515080 1096.000000
87.534830 1143.000000
87.554580 1057.000000
87.574330 1126.000000
87.594080 1119.000000
87.613830 1171.000000
87.633580 1151.000000
87.653330 1181.000000
87.673080 1218.000000
87.692830 1301.000000
87.712580 1398.000000
87.732330 1406.000000
87.752080 1390.000000
87.771830 1542.000000
87.791580 1508.000000
87.811330 1513.000000
87.831080 1479.000000
87.850830 1505.000000
87.870580 1481.000000
87.890330 1426.000000
87.910080 1458.000000
87.929830 1406.000000
87.949580 1444.000000
87.969330 1422.000000
87.989080 1427.000000
88.008830 1345.000000
88.028580 1426.000000
88.048330 1405.000000
88.068080 1394.000000
88.087830 1469.000000
88.107580 1433.000000
88.127330 1409.000000
88.147080 1387.000000
88.166830 1337.000000
88.186580 1349.000000
88.206330 1385.000000
88.226080 1335.000000
88.245830 1322.000000
88.265580 1375.000000
88.285330 1316.000000
88.305080 1318.000000
88.324830 1387.000000
88.344580 1334.000000
88.364330 1372.000000
88.384080 1305.000000
88.403830 1284.000000
88.423580 1253.000000
88.443330 1295.000000
88.463080 1305.000000
88.482830 1245.000000
88.502580 1291.000000
88.522330 1205.000000
88.542080 1254.000000
88.561830 1233.000000
88.581580 1256.000000
88.601330 1192.000000
88.621080 1209.000000
88.640830 1222.000000
88.660580 1235.000000
88.680330 1159.000000
88.700080 1199.000000
88.719830 1152.000000
88.739580 1203.000000
88.759330 1190.000000
88.779080 1146.000000
88.798830 1122.000000
88.818580 1174.000000
88.838330 1151.000000
88.858080 1124.000000
88.877830 1124.000000
88.897580 1217.000000
88.917330 1182.000000
88.937080 1183.000000
88.956820 1210.000000
88.976570 1217.000000
88.996320 1190.000000
89.016070 1244.000000
89.035820 1259.000000
89.055570 1282.000000
89.075320 1325.000000
89.095070 1333.000000
89.114820 1353.000000
89.134570 1404.000000
89.154320 1437.000000
89.174070 1496.000000
89.193820 1456.000000
89.213570 1514.000000
89.233320 1549.000000
89.253070 1476.000000
89.272820 1591.000000
89.292570 1602.000000
89.312320 1541.000000
89.332070 1523.000000
89.351820 1580.000000
89.371570 1564.000000
89.391320 1606.000000
89.411070 1598.000000
89.430820 1549.000000
89.450570 1577.000000
89.470320 1634.000000
89.490070 1658.000000
89.509820 1729.000000
89.529570 1728.000000
89.549320 1703.000000
89.569070 1681.000000
89.588820 1602.000000
89.608570 1719.000000
89.628320 1639.000000
89.648070 1627.000000
89.667820 1596.000000
89.687570 1574.000000
89.707320 1610.000000
89.727070 1523.000000
89.746820 1517.000000
89.766570 1507.000000
89.786320 1488.000000
89.806070 1471.000000
89.825820 1466.000000
89.845570 1473.000000
89.865320 1424.000000
89.885070 1410.000000
89.904820 1391.000000
89.924570 1304.000000
89.944320 1275.000000
89.964070 1330.000000
89.983820 1313.000000
90.003570 1283.000000
